Time (s),Venous (mmHg),FAP (mmHg),Arterial - Pigtail (mmHg),Swan (mmHg),EKG (mV)
58374.0644,12.8125,64.8125,27.1281,-2.8125,0.00288201
58374.0669,12.75,64.625,28.22133,-2.5625,0.002860208
58374.0694,12.6875,64.625,28.15663,-2.8125,0.002866437
58374.0719,12.9375,64.625,27.14222,-2.9375,0.002897583
58374.0744,12.8125,64.4375,25.67721,-2.5625,0.002891354
58374.0769,12.9375,64.5625,24.28951,-2.9375,0.002875781
58374.0794,12.9375,64.1875,23.29988,-2.625,0.002853979
58374.0819,12.9375,64.1875,22.72079,-2.625,0.002861765
58374.0844,12.625,63.875,22.32341,-2.125,0.002885125
58374.0869,12.6875,63.5625,21.81793,-2.375,0.002880453
58374.0894,12.75,63.4375,21.03866,-2.125,0.002867994
58374.0919,12.8125,63.0625,20.03281,-2.4375,0.002863322
58374.0944,12.8125,62.75,19.01363,-2.5,0.002869552
58374.0969,12.625,62.25,18.21686,-2.25,0.002883567
58374.0994,12.6875,61.8125,17.75222,-2.6875,0.002874223
58374.1019,12.5625,61.5625,17.53926,-2.5,0.002861765
58374.1044,12.6875,60.875,17.36334,-2.3125,0.002857093
58374.1069,12.8125,60.375,17.01501,-1.6875,0.00286488
58374.1094,12.6875,60.0,16.42653,-1.75,0.002872666
58374.1119,12.5625,59.5625,15.72141,-1.75,0.002855536
58374.1144,12.5,58.875,15.14475,-2.375,0.002833734
58374.1169,12.6875,58.375,14.91355,-2.3125,0.002830619
58374.1194,12.6875,57.9375,15.07503,-2.25,0.002847749
58374.1219,12.875,57.375,15.45928,-1.9375,0.002853979
58374.1244,12.5625,56.6875,15.75929,-2.125,0.002836848
58374.1269,12.6875,56.1875,15.69863,-2.25,0.002833734
58374.1294,12.6875,55.875,15.19393,-1.625,0.002830619
58374.1319,12.6875,55.4375,14.41908,-1.875,0.002843077
58374.1344,12.625,55.25,13.73021,-1.9375,0.002838406
58374.1369,12.8125,54.9375,13.48669,-2.1875,0.002811931
58374.1394,12.6875,54.4375,13.86196,-2.4375,0.002813489
58374.1419,12.625,54.0,14.74608,-2.375,0.002829062
58374.1444,12.625,53.75,15.79405,-2.4375,0.002836848
58374.1469,12.5625,53.4375,16.59622,-1.75,0.002832176
58374.1494,12.625,53.0625,16.88189,-1.9375,0.002810374
58374.1519,12.5625,52.6875,16.65013,-2.1875,0.00280726
58374.1544,12.75,52.375,16.16102,-2.125,0.002829062
58374.1569,12.6875,51.875,15.79485,-2.3125,0.00284152
58374.1594,12.5,51.375,15.85536,-2.0625,0.002830619
58374.1619,12.5625,51.0625,16.41992,-2.625,0.002816603
58374.1644,12.5,50.625,17.31227,-2.5,0.002818161
58374.1669,12.625,50.3125,18.206,-2.5,0.002829062
58374.1694,12.5625,50.125,18.79823,-2.6875,0.002833734
58374.1719,12.5625,49.6875,18.96098,-2.4375,0.002830619
58374.1744,12.625,49.3125,18.79276,-2.4375,0.002825947
58374.1769,12.4375,48.875,18.55044,-2.0625,0.002818161
58374.1794,12.5,48.6875,18.50464,-1.5625,0.002833734
58374.1819,12.5,48.3125,18.79882,-2.3125,0.002833734
58374.1844,12.4375,48.1875,19.38482,-2.1875,0.002811931
58374.1869,12.4375,47.875,20.06216,-1.6875,0.002822833
58374.1894,12.4375,47.5,20.59165,-2.5625,0.002838406
58374.1919,12.4375,47.25,20.81798,-2.625,0.002835291
58374.1944,12.5625,47.1875,20.73651,-2.625,0.002838406
58374.1969,12.5625,46.9375,20.47489,-2.8125,0.00282439
58374.1994,12.4375,46.75,20.20809,-2.6875,0.002825947
58374.2019,12.5625,46.4375,20.05865,-2.875,0.002853979
58374.2044,12.5625,46.125,20.03754,-2.625,0.00285865
58374.2069,12.3125,46.0,20.05292,-2.4375,0.002844635
58374.2094,12.375,45.875,19.97496,-2.0625,0.002835291
58374.2119,12.4375,45.5625,19.71529,-1.75,0.002829062
58374.2144,12.5,45.3125,19.27631,-2.1875,0.002829062
58374.2169,12.4375,45.25,18.74624,-2.1875,0.002827504
58374.2194,12.3125,44.9375,18.24811,-2.5,0.002819718
58374.2219,12.4375,44.75,17.87481,-2.5,0.002839963
58374.2244,12.25,44.75,17.64665,-1.8125,0.002863322
58374.2269,12.375,44.3125,17.51204,-1.9375,0.002894468
58374.2294,12.5,44.375,17.38562,-2.0625,0.002913156
58374.2319,12.4375,44.125,17.19894,-2.0625,0.002919385
58374.2344,12.5625,43.875,16.93467,-1.9375,0.002948974
58374.2369,12.5,43.625,16.62832,-2.3125,0.002970776
58374.2394,12.5,43.5,16.3411,-2.0625,0.002975448
58374.2419,12.3125,43.3125,16.12292,-1.9375,0.002984792
58374.2444,12.3125,43.25,15.98729,-2.0,0.002975448
58374.2469,12.375,43.125,15.91017,-2.0625,0.002983235
58374.2494,12.5625,43.0625,15.84933,-2.1875,0.003001922
58374.2519,12.5,42.8125,15.77035,-2.0,0.002983235
58374.2544,12.625,42.625,15.66337,-2.25,0.002948974
58374.2569,12.5625,42.4375,15.54292,-2.5625,0.0029225
58374.2594,12.5625,42.375,15.43432,-2.375,0.002905369
58374.2619,12.5625,42.25,15.35756,-2.4375,0.002894468
58374.2644,12.5625,41.875,15.31758,-2.6875,0.002867994
58374.2669,12.5625,41.8125,15.30509,-2.25,0.002857093
58374.2694,12.5,41.625,15.30505,-2.0,0.00284152
58374.2719,12.5,41.5625,15.30576,-2.3125,0.002847749
58374.2744,12.5,41.5,15.30273,-2.0625,0.002860208
58374.2769,12.4375,41.375,15.29755,-2.0625,0.002830619
58374.2794,12.6875,41.25,15.29399,-2.125,0.00280103
58374.2819,12.4375,41.0625,15.29548,-1.8125,0.002811931
58374.2844,12.5625,41.0,15.30562,-2.125,0.002830619
58374.2869,12.625,40.875,15.32922,-2.0,0.002832176
58374.2894,12.4375,40.6875,15.37165,-1.9375,0.002819718
58374.2919,12.6875,40.6875,15.43494,-1.9375,0.002804145
58374.2944,12.5625,40.5,15.51313,-2.1875,0.002804145
58374.2969,12.5625,40.3125,15.59249,-2.6875,0.002832176
58374.2994,12.4375,40.25,15.65781,-2.625,0.002815046
58374.3019,12.375,40.125,15.70173,-2.4375,0.002791687
58374.3044,12.5625,40.0,15.73265,-2.5,0.002790129
58374.3069,12.5,39.75,15.77334,-2.875,0.002797916
58374.3094,12.375,39.8125,15.8464,-3.1875,0.002825947
58374.3119,12.4375,39.625,15.95375,-3.125,0.002804145
58374.3144,12.5625,39.5,16.06323,-3.0,0.002771442
58374.3169,12.5625,39.5,16.11551,-2.875,0.002734066
58374.3194,12.375,39.3125,16.04972,-2.3125,0.002701363
58374.3219,12.4375,39.25,15.83585,-2.6875,0.002780785
58374.3244,12.5,39.4375,15.49744,-2.625,0.002958318
58374.3269,12.4375,39.0,15.10653,-2.25,0.003187241
58374.3294,12.5,39.0,14.75062,-2.8125,0.00347067
58374.3319,12.4375,39.0,14.48804,-2.5625,0.003517389
58374.3344,12.5625,38.875,14.31481,-2.1875,0.003003479
58374.3369,12.375,38.75,14.16613,-1.9375,0.002312038
58374.3394,12.4375,38.875,13.9558,-2.375,0.002156308
58374.3419,12.5625,38.75,13.63233,-2.5,0.002254418
58374.3444,12.4375,38.5,13.21905,-2.9375,0.002340069
58374.3469,12.25,38.375,12.80972,-2.6875,0.002433507
58374.3494,12.5,38.5,12.51834,-3.125,0.002548748
58374.3519,12.625,38.4375,12.40699,-3.25,0.002625055
58374.3544,12.25,38.4375,12.43636,-3.375,0.002690462
58374.3569,12.375,38.1875,12.47312,-3.5,0.002744968
58374.3594,12.4375,38.3125,12.35967,-3.25,0.002754311
58374.3619,12.3125,38.125,12.01134,-3.3125,0.002740296
58374.3644,12.375,38.125,11.48428,-2.875,0.002752754
58374.3669,12.4375,38.125,10.96645,-3.0625,0.002769884
58374.3694,12.375,38.125,10.68249,-3.375,0.002787015
58374.3719,12.375,37.75,10.75664,-2.875,0.002776114
58374.3744,12.3125,37.75,11.109,-2.125,0.002752754
58374.3769,12.3125,37.8125,11.45181,-2.5,0.002760541
58374.3794,12.5625,37.5,11.40773,-2.3125,0.002776114
58374.3819,12.3125,37.5,10.70477,-2.6875,0.002776114
58374.3844,12.25,37.4375,9.351968,-2.9375,0.002760541
58374.3869,12.3125,37.5,7.697835,-2.6875,0.002757426
58374.3894,12.4375,37.1875,6.323164,-2.5625,0.002772999
58374.3919,12.1875,37.1875,5.80254,-2.5625,0.002776114
58374.3944,12.4375,37.25,6.441432,-2.4375,0.002780785
58374.3969,12.4375,37.3125,8.119354,-2.5625,0.00276677
58374.3994,12.4375,37.0625,10.32635,-2.5,0.002755869
58374.4019,12.25,37.125,12.38887,-2.5625,0.002762098
58374.4044,12.4375,37.0,13.78534,-2.6875,0.002779228
58374.4069,12.4375,36.875,14.40126,-2.75,0.0027839
58374.4094,12.4375,36.8125,14.59728,-2.8125,0.002768327
58374.4119,12.25,36.6875,15.05157,-2.875,0.002758983
58374.4144,12.375,36.6875,16.44859,-3.0,0.002769884
58374.4169,12.25,36.875,19.16219,-2.625,0.00276677
58374.4194,12.3125,36.75,23.08557,-3.4375,0.002754311
58374.4219,12.25,36.625,27.68756,-2.9375,0.002741853
58374.4244,12.125,36.375,32.2632,-2.875,0.00274341
58374.4269,12.3125,36.4375,36.25196,-2.75,0.002751197
58374.4294,12.375,36.25,39.46679,-2.6875,0.00274341
58374.4319,12.3125,36.3125,42.12688,-2.75,0.002734066
58374.4344,12.1875,36.375,44.68871,-2.25,0.002727837
58374.4369,12.1875,36.125,47.571,-2.5,0.002735624
58374.4394,12.1875,36.25,50.91835,-2.6875,0.002746525
58374.4419,12.1875,36.25,54.52184,-2.8125,0.002730952
58374.4444,12.1875,36.125,57.92885,-2.8125,0.00270915
58374.4469,12.0,35.875,60.67635,-2.625,0.002696691
58374.4494,12.0625,35.875,62.5224,-2.9375,0.002710707
58374.4519,12.1875,35.875,63.55753,-2.9375,0.002737181
58374.4544,12.0,35.75,64.1459,-2.8125,0.002716936
58374.4569,12.0,35.4375,64.73516,-2.4375,0.00270292
58374.4594,11.9375,35.75,65.63823,-2.1875,0.002695134
58374.4619,12.0625,35.625,66.89996,-2.25,0.002710707
58374.4644,12.0,35.5,68.30957,-2.5625,0.002713822
58374.4669,11.9375,35.375,69.54102,-2.8125,0.002696691
58374.4694,11.8125,35.4375,70.33965,-2.75,0.00268579
58374.4719,11.9375,35.5,70.6554,-3.0,0.002688905
58374.4744,11.9375,35.4375,70.65781,-2.5625,0.002716936
58374.4769,11.9375,35.25,70.63567,-2.3125,0.002718493
58374.4794,11.875,35.1875,70.84356,-3.0625,0.002692019
58374.4819,11.9375,35.25,71.37926,-2.5625,0.002679561
58374.4844,11.9375,35.1875,72.15397,-2.8125,0.002690462
58374.4869,11.875,35.1875,72.96046,-2.75,0.002712264
58374.4894,11.9375,35.4375,73.5949,-2.6875,0.002716936
58374.4919,11.8125,35.4375,73.96178,-2.9375,0.002690462
58374.4944,11.9375,35.5,74.10798,-2.75,0.002688905
58374.4969,11.75,35.5625,74.17663,-2.4375,0.002696691
58374.4994,11.9375,35.875,74.31464,-2.125,0.00270292
58374.5019,12.0,36.0,74.59035,-2.75,0.002704478
58374.5044,11.875,36.1875,74.966,-2.625,0.002698249
58374.5069,11.875,36.5625,75.33422,-2.625,0.002696691
58374.5094,11.9375,37.1875,75.59062,-2.5,0.002710707
58374.5119,11.9375,37.625,75.69568,-2.625,0.002701363
58374.5144,11.9375,38.125,75.68987,-2.25,0.002679561
58374.5169,11.875,38.875,75.65811,-2.25,0.002667103
58374.5194,11.875,39.375,75.66891,-2.0,0.002670217
58374.5219,12.0,40.0,75.72891,-2.1875,0.002692019
58374.5244,11.9375,40.6875,75.781,-2.0625,0.002679561
58374.5269,12.0,41.3125,75.74576,-2.3125,0.002654644
58374.5294,11.8125,41.75,75.5788,-2.4375,0.002635957
58374.5319,12.0625,42.375,75.30517,-2.5,0.002640628
58374.5344,12.0,42.875,75.00787,-2.25,0.002665545
58374.5369,11.875,43.375,74.77568,-2.4375,0.002646858
58374.5394,12.0,43.8125,74.64304,-2.5625,0.002625055
58374.5419,11.9375,44.4375,74.56016,-2.6875,0.002640628
58374.5444,12.0625,44.8125,74.4142,-2.5625,0.002676446
58374.5469,12.0625,45.625,74.09321,-2.625,0.002718493
58374.5494,12.0,46.1875,73.55663,-2.4375,0.002729395
58374.5519,11.9375,46.75,72.86801,-2.5,0.002727837
58374.5544,11.875,47.25,72.16862,-2.5625,0.002765212
58374.5569,12.0,48.0,71.6034,-2.1875,0.00280103
58374.5594,12.125,48.75,71.24111,-2.4375,0.002827504
58374.5619,12.0,49.625,71.03644,-2.1875,0.002832176
58374.5644,12.0625,50.375,70.85535,-1.8125,0.002821275
58374.5669,12.125,51.1875,70.5544,-1.875,0.00284152
58374.5694,11.9375,51.8125,70.06791,-1.9375,0.002867994
58374.5719,12.0625,52.6875,69.44978,-1.875,0.002875781
58374.5744,12.1875,53.1875,68.84347,-2.375,0.002852421
58374.5769,12.0625,53.9375,68.39565,-2.3125,0.002853979
58374.5794,12.0625,54.5625,68.16329,-2.0,0.002850864
58374.5819,12.125,55.375,68.07193,-1.75,0.00286488
58374.5844,12.0,56.0625,67.95422,-1.75,0.002875781
58374.5869,11.9375,56.625,67.64978,-2.1875,0.00284152
58374.5894,12.125,57.5,67.10744,-1.9375,0.002838406
58374.5919,12.0,58.125,66.4241,-2.3125,0.002866437
58374.5944,11.875,58.5,65.78943,-1.9375,0.002874223
58374.5969,12.0,59.25,65.3606,-2.4375,0.00286488
58374.5994,12.125,59.875,65.13818,-2.0625,0.002839963
58374.6019,12.125,60.4375,64.9214,-2.1875,0.002850864
58374.6044,12.0625,60.875,64.38104,-2.125,0.002883567
58374.6069,12.125,61.25,63.22139,-2.5,0.002891354
58374.6094,12.25,61.625,61.34556,-2.8125,0.002866437
58374.6119,12.125,61.9375,58.92501,-2.375,0.002849307
58374.6144,12.0625,62.25,56.32252,-2.1875,0.002871109
58374.6169,12.0625,62.6875,53.89729,-2.4375,0.00289914
58374.6194,12.25,63.0,51.79196,-2.0625,0.002902255
58374.6219,12.1875,63.375,49.82598,-1.8125,0.002888239
58374.6244,11.9375,63.625,47.57017,-2.125,0.00288201
58374.6269,12.0625,63.8125,44.58344,-2.0625,0.00289914
58374.6294,12.25,64.25,40.69903,-1.6875,0.002916271
58374.6319,12.25,64.4375,36.20755,-1.6875,0.002911599
58374.6344,12.0625,64.4375,31.82529,-1.9375,0.002892911
58374.6369,12.1875,64.625,28.43993,-2.25,0.002902255
58374.6394,12.25,64.875,26.7411,-2.0625,0.002930286
58374.6419,12.0625,64.9375,26.90921,-2.375,0.002930286
58374.6444,12.0625,65.0,28.51527,-1.9375,0.002924057
58374.6469,12.125,65.1875,30.6846,-2.0625,0.002902255
58374.6494,12.3125,65.0,32.44968,-2.125,0.002911599
58374.6519,12.0625,64.9375,33.12633,-2.375,0.002952089
58374.6544,12.125,64.8125,32.54072,-2.125,0.00293963
58374.6569,12.125,64.75,31.01408,-2.125,0.002927172
58374.6594,12.0,64.5625,29.13397,-2.125,0.0029225
58374.6619,12.125,64.6875,27.44283,-1.875,0.002927172
58374.6644,12.125,64.5625,26.20211,-1.375,0.002945859
58374.6669,11.9375,64.25,25.33709,-2.125,0.002944302
58374.6694,12.0625,64.1875,24.56269,-1.9375,0.002931844
58374.6719,12.1875,64.0,23.59662,-1.6875,0.002930286
58374.6744,12.0,63.5625,22.33156,-2.0,0.002948974
58374.6769,12.25,63.3125,20.87541,-1.9375,0.002953646
58374.6794,12.25,63.0,19.45589,-1.6875,0.002933401
58374.6819,11.9375,62.4375,18.26383,-1.6875,0.002925614
58374.6844,12.0,62.125,17.33916,-1.5,0.002936516
58374.6869,11.9375,61.625,16.56723,-1.125,0.00295676
58374.6894,12.1875,61.1875,15.77877,-1.625,0.002959875
58374.6919,12.0625,60.625,14.88105,-1.4375,0.002950531
58374.6944,12.0625,60.125,13.93013,-1.375,0.002934958
58374.6969,12.0625,59.5625,13.09513,-1.3125,0.002945859
58374.6994,12.0625,58.9375,12.5377,-1.0,0.002967662
58374.7019,11.9375,58.625,12.2864,-1.1875,0.002961432
58374.7044,12.0625,57.9375,12.19266,-1.5625,0.002952089
58374.7069,12.0625,57.5,12.00447,-1.6875,0.002944302
58374.7094,12.0625,57.25,11.51885,-1.75,0.002952089
58374.7119,12.1875,56.5,10.71927,-1.5625,0.002975448
58374.7144,12.0,56.0,9.806693,-1.4375,0.002959875
58374.7169,12.1875,55.75,9.094061,-1.3125,0.002950531
58374.7194,12.1875,55.125,8.816214,-1.8125,0.002945859
58374.7219,12.0,54.875,8.967003,-1.8125,0.002969219
58374.7244,12.0,54.6875,9.267602,-1.6875,0.002981677
58374.7269,12.0625,54.125,9.298163,-1.5625,0.002958318
58374.7294,12.0,54.0625,8.732589,-2.0,0.002948974
58374.7319,12.0625,53.5625,7.548261,-2.25,0.002959875
58374.7344,11.9375,53.1875,6.084944,-1.875,0.002967662
58374.7369,11.875,52.875,4.906643,-1.875,0.002975448
58374.7394,11.875,52.5,4.525363,-2.0625,0.002966104
58374.7419,11.75,51.75,5.127853,-1.6875,0.002952089
58374.7444,11.875,51.625,6.454836,-1.5,0.002958318
58374.7469,11.875,51.25,7.904383,-2.25,0.002961432
58374.7494,11.8125,50.9375,8.81556,-1.625,0.002961432
58374.7519,11.875,50.4375,8.790192,-1.375,0.00295676
58374.7544,11.75,50.125,7.886542,-1.625,0.002964547
58374.7569,11.8125,49.8125,6.584687,-1.375,0.002981677
58374.7594,11.8125,49.4375,5.53816,-1.4375,0.003003479
58374.7619,11.75,49.1875,5.239388,-1.875,0.003006594
58374.7644,11.75,48.6875,5.771939,-1.9375,0.002989464
58374.7669,11.75,48.4375,6.774398,-2.0,0.00299725
58374.7694,11.625,48.3125,7.630547,-1.8125,0.003015938
58374.7719,11.5625,47.8125,7.785858,-1.9375,0.003029954
58374.7744,11.625,47.75,7.026036,-1.6875,0.00303774
58374.7769,11.625,47.4375,5.578245,-1.8125,0.00302061
58374.7794,11.625,47.125,3.98936,-2.0,0.003026839
58374.7819,11.5625,47.0,2.850245,-2.0625,0.003051756
58374.7844,11.875,46.75,2.508931,-1.75,0.003057985
58374.7869,11.625,46.375,2.91634,-1.8125,0.003056428
58374.7894,11.5,46.4375,3.673116,-2.1875,0.003051756
58374.7919,11.625,46.125,4.242496,-1.8125,0.003065771
58374.7944,11.5625,46.0,4.214027,-1.8125,0.003090688
58374.7969,11.5625,45.5625,3.485392,-2.0,0.003079787
58374.7994,11.625,45.4375,2.281258,-1.75,0.003050198
58374.8019,11.625,45.3125,1.014841,-2.125,0.003056428
58374.8044,11.5625,45.0625,0.07538338,-2.5,0.00307823
58374.8069,11.4375,44.8125,-0.3476902,-2.1875,0.00309536
58374.8094,11.375,44.75,-0.3231332,-1.9375,0.00311249
58374.8119,11.5625,44.5,-0.1049957,-2.125,0.003106261
58374.8144,11.375,44.3125,0.01802373,-1.8125,0.003129621
58374.8169,11.5625,44.1875,-0.1337775,-2.1875,0.003170111
58374.8194,11.375,44.0625,-0.564625,-2.3125,0.003204371
58374.8219,11.4375,43.75,-1.134648,-2.0625,0.003224616
58374.8244,11.375,43.6875,-1.657487,-1.9375,0.003198142
58374.8269,11.5625,43.4375,-2.003061,-2.5625,0.003223059
58374.8294,11.625,43.25,-2.152166,-2.3125,0.003261991
58374.8319,11.4375,43.0625,-2.183245,-2.25,0.003272892
58374.8344,11.5,43.1875,-2.210956,-2.5625,0.003276007
58374.8369,11.4375,42.75,-2.31868,-2.5,0.003241746
58374.8394,11.3125,42.5625,-2.522418,-2.3125,0.003235517
58374.8419,11.5,42.5,-2.77922,-2.375,0.003240189
58374.8444,11.3125,42.25,-3.025941,-1.9375,0.003199699
58374.8469,11.25,42.0625,-3.218784,-2.5625,0.003142079
58374.8494,11.5,42.1875,-3.351802,-2.75,0.003115605
58374.8519,11.5625,41.9375,-3.44803,-2.9375,0.003138965
58374.8544,11.25,41.6875,-3.535601,-2.875,0.003160767
58374.8569,11.375,41.625,-3.628328,-2.75,0.003148308
58374.8594,11.25,41.5,-3.723202,-2.625,0.003117162
58374.8619,11.375,41.25,-3.81259,-2.5625,0.003109376
58374.8644,11.4375,41.25,-3.898671,-2.875,0.003131178
58374.8669,11.4375,41.125,-3.996799,-3.0625,0.003145194
58374.8694,11.375,40.9375,-4.123459,-3.0625,0.003124949
58374.8719,11.4375,40.9375,-4.278394,-2.625,0.003110933
58374.8744,11.5,40.875,-4.435114,-3.0,0.003124949
58374.8769,11.375,40.625,-4.551336,-2.875,0.003148308
58374.8794,11.4375,40.5625,-4.595702,-2.0,0.003132735
58374.8819,11.375,40.3125,-4.574421,-2.4375,0.003128063
58374.8844,11.3125,40.3125,-4.539946,-2.625,0.003114048
58374.8869,11.4375,40.4375,-4.571702,-2.4375,0.003132735
58374.8894,11.5,40.125,-4.736404,-2.1875,0.003156095
58374.8919,11.5,40.0625,-5.048575,-2.3125,0.003149866
58374.8944,11.4375,40.0,-5.455771,-2.25,0.00313585
58374.8969,11.375,39.75,-5.858646,-2.0,0.003131178
58374.8994,11.5625,39.75,-6.156807,-2.0625,0.003140522
58374.9019,11.5,39.625,-6.29689,-2.1875,0.00311872
58374.9044,11.375,39.625,-6.298626,-2.0,0.003068886
58374.9069,11.3125,39.375,-6.245479,-2.0625,0.003093803
58374.9094,11.4375,39.375,-6.246721,-2.5625,0.003204371
58374.9119,11.375,39.3125,-6.391773,-2.3125,0.003335184
58374.9144,11.4375,39.25,-6.719266,-2.0,0.003472227
58374.9169,11.4375,39.125,-7.212065,-1.6875,0.003515831
58374.9194,11.3125,38.9375,-7.814168,-1.75,0.003355429
58374.9219,11.25,39.0625,-8.454859,-1.8125,0.003100032
58374.9244,11.4375,38.9375,-9.066709,-1.75,0.002969219
58374.9269,11.1875,38.6875,-9.594729,-2.5625,0.002945859
58374.9294,11.5,38.8125,-10.00202,-2.3125,0.002891354
58374.9319,11.4375,38.6875,-10.27963,-2.1875,0.002905369
58374.9344,11.25,38.5,-10.46159,-2.0625,0.00299725
58374.9369,11.5,38.625,-10.63313,-2.9375,0.003092246
58374.9394,11.375,38.375,-10.91368,-2.1875,0.00313585
58374.9419,11.5625,38.5,-11.40841,-2.8125,0.003149866
58374.9444,11.375,38.375,-12.14262,-3.0625,0.003170111
58374.9469,11.4375,38.3125,-13.01403,-2.4375,0.003201257
58374.9494,11.375,38.3125,-13.80137,-2.3125,0.0032106
58374.9519,11.4375,38.1875,-14.24277,-2.5,0.003191913
58374.9544,11.3125,38.1875,-14.16506,-2.1875,0.003191913
58374.9569,11.375,38.125,-13.60411,-2.3125,0.003202814
58374.9594,11.4375,38.0,-12.84527,-2.0625,0.003219944
58374.9619,11.5,38.0,-12.34289,-2.5,0.003224616
58374.9644,11.5,37.8125,-12.53478,-2.5625,0.003209043
58374.9669,11.5,37.75,-13.62636,-2.375,0.003207486
58374.9694,11.5,37.75,-15.44883,-2.625,0.00321683
58374.9719,11.5,37.625,-17.47277,-2.5625,0.003227731
58374.9744,11.4375,37.5625,-18.99081,-2.625,0.00323396
58374.9769,11.5,37.625,-19.40028,-2.6875,0.003218387
58374.9794,11.5625,37.5,-18.46062,-2.375,0.003219944
58374.9819,11.4375,37.3125,-16.40468,-2.125,0.00323396
58374.9844,11.5,37.375,-13.84462,-2.0625,0.003247976
58374.9869,11.5625,37.4375,-11.50903,-2.625,0.003246418
58374.9894,11.4375,37.0625,-9.929164,-2.4375,0.003226173
58374.9919,11.3125,37.25,-9.216798,-2.6875,0.003235517
58374.9944,11.5,37.125,-9.033833,-2.375,0.003249533
58374.9969,11.375,36.9375,-8.762315,-2.0625,0.003247976
58374.9994,11.5625,37.0625,-7.788404,-2.875,0.003224616
58375.0019,11.3125,36.875,-5.767549,-2.125,0.003213715
58375.0044,11.375,36.875,-2.752157,-2.4375,0.003235517
58375.0069,11.375,36.9375,0.8653423,-2.5,0.003260434
58375.0094,11.5,36.6875,4.549102,-2.6875,0.00325109
58375.0119,11.4375,36.75,7.851354,-2.0625,0.003227731
58375.0144,11.4375,36.75,10.56839,-2.1875,0.003215272
58375.0169,11.3125,36.625,12.76024,-2.0625,0.003227731
58375.0194,11.4375,36.5625,14.6472,-2.1875,0.00325109
58375.0219,11.1875,36.25,16.45459,-2.0625,0.003247976
58375.0244,11.25,36.4375,18.29291,-2.0,0.003221501
58375.0269,11.3125,36.375,20.12837,-2.25,0.003215272
58375.0294,11.25,36.3125,21.84278,-2.3125,0.003235517
58375.0319,11.25,36.25,23.33337,-2.375,0.003238632
58375.0344,11.4375,36.25,24.58981,-2.25,0.003237074
58375.0369,11.125,36.0,25.70583,-2.375,0.003221501
58375.0394,11.375,36.0625,26.82563,-2.375,0.003212158
58375.0419,11.3125,36.125,28.06293,-2.1875,0.003230845
58375.0444,11.3125,36.0,29.44094,-2.6875,0.003227731
58375.0469,11.25,35.875,30.8859,-2.3125,0.003219944
58375.0494,11.25,35.9375,32.27327,-2.3125,0.00321683
58375.0519,11.25,35.6875,33.49564,-2.5,0.003218387
58375.0544,11.125,35.6875,34.51269,-2.75,0.00323396
58375.0569,11.25,35.625,35.35843,-2.5,0.003229288
58375.0594,11.1875,35.6875,36.10756,-2.375,0.003215272
58375.0619,11.125,35.5625,36.82624,-2.0,0.003209043
58375.0644,11.1875,35.625,37.53812,-1.875,0.003212158
58375.0669,11.1875,35.625,38.22347,-1.8125,0.003215272
58375.0694,11.1875,35.5625,38.8468,-1.875,0.003201257
58375.0719,11.125,35.5625,39.39202,-2.0,0.003190355
58375.0744,11.1875,35.9375,39.88054,-1.8125,0.003201257
58375.0769,11.3125,35.8125,40.3609,-1.8125,0.003213715
58375.0794,11.125,35.9375,40.87858,-1.6875,0.003202814
58375.0819,11.0625,36.0,41.44554,-2.0625,0.003179454
58375.0844,11.125,36.375,42.03108,-1.6875,0.003174782
58375.0869,11.125,36.4375,42.58055,-2.0,0.00317634
58375.0894,11.125,36.875,43.05072,-2.3125,0.003202814
58375.0919,11.1875,37.25,43.44119,-2.25,0.003191913
58375.0944,11.25,37.75,43.8005,-1.8125,0.003162324
58375.0969,11.125,38.1875,44.20254,-1.75,0.003148308
58375.0994,11.1875,38.75,44.70527,-1.875,0.003154538
58375.1019,11.3125,39.4375,45.31434,-2.0625,0.003177897
58375.1044,11.25,40.1875,45.97368,-1.625,0.003165439
58375.1069,11.0625,40.875,46.58975,-1.9375,0.003134293
58375.1094,11.25,41.4375,47.0778,-1.5,0.003128063
58375.1119,11.4375,42.0,47.40589,-1.875,0.00313585
58375.1144,11.375,42.4375,47.61377,-2.1875,0.003142079
58375.1169,11.25,43.125,47.79616,-1.625,0.003132735
58375.1194,11.125,43.5,48.05711,-1.75,0.003107819
58375.1219,11.25,44.1875,48.46106,-2.0625,0.003114048
58375.1244,11.375,44.75,49.00467,-1.8125,0.00313585
58375.1269,11.375,45.25,49.62283,-1.6875,0.003143636
58375.1294,11.375,46.0,50.22521,-2.1875,0.003140522
58375.1319,11.4375,46.625,50.74198,-2.25,0.00313585
58375.1344,11.3125,47.3125,51.15353,-2.75,0.003159209
58375.1369,11.375,48.0625,51.48805,-2.6875,0.003196585
58375.1394,11.4375,48.75,51.79054,-2.3125,0.003213715
58375.1419,11.4375,49.625,52.08147,-2.3125,0.003215272
58375.1444,11.3125,50.25,52.33065,-2.1875,0.003218387
58375.1469,11.375,51.125,52.46759,-2.5625,0.003247976
58375.1494,11.5625,51.8125,52.42255,-2.625,0.00327445
58375.1519,11.4375,52.6875,52.17558,-2.75,0.003258877
58375.1544,11.5,53.5,51.783,-2.125,0.003235517
58375.1569,11.4375,54.5,51.35958,-2.6875,0.003230845
58375.1594,11.3125,54.9375,51.02012,-2.0625,0.00325109
58375.1619,11.25,55.9375,50.81,-2.0,0.003243304
58375.1644,11.4375,56.5,50.66437,-2.375,0.003224616
58375.1669,11.4375,57.0625,50.42555,-2.0,0.003196585
58375.1694,11.25,57.6875,49.9163,-1.875,0.003202814
58375.1719,11.375,58.3125,49.03499,-1.8125,0.003221501
58375.1744,11.5,59.0625,47.82075,-1.875,0.003215272
58375.1769,11.4375,59.625,46.4445,-1.9375,0.003187241
58375.1794,11.375,60.1875,45.12388,-2.1875,0.003168553
58375.1819,11.5,60.8125,44.00235,-2.1875,0.003179454
58375.1844,11.5625,61.4375,43.05592,-1.875,0.003201257
58375.1869,11.5,61.75,42.08256,-1.3125,0.003199699
58375.1894,11.4375,62.0625,40.7892,-1.625,0.003188798
58375.1919,11.5,62.625,38.93615,-1.5,0.003174782
58375.1944,11.5,63.125,36.46373,-1.75,0.003184126
58375.1969,11.4375,63.4375,33.52993,-2.3125,0.003202814
58375.1994,11.375,63.75,30.43151,-2.0625,0.003187241
58375.2019,11.5,64.125,27.44625,-1.8125,0.003160767
58375.2044,11.5625,64.5625,24.68158,-2.0625,0.003168553
58375.2069,11.6875,64.6875,22.01932,-2.4375,0.003196585
58375.2094,11.4375,65.0,19.1987,-2.0625,0.00319347
58375.2119,11.4375,65.1875,16.00505,-2.0,0.003177897
58375.2144,11.625,65.5625,12.46724,-1.8125,0.003165439
58375.2169,11.625,65.8125,8.951077,-1.8125,0.003166996
58375.2194,11.6875,65.8125,6.08053,-1.8125,0.003190355
58375.2219,11.5625,65.8125,4.503622,-1.875,0.003191913
58375.2244,11.75,65.875,4.603229,-1.875,0.003174782
58375.2269,11.5,66.0,6.289993,-1.6875,0.003170111
58375.2294,11.625,66.0625,8.983526,-1.875,0.003182569
58375.2319,11.75,66.0625,11.80253,-1.9375,0.003195027
58375.2344,11.75,65.875,13.88554,-2.1875,0.003187241
58375.2369,11.75,65.75,14.70163,-1.875,0.00317634
58375.2394,11.5,65.625,14.21592,-1.5,0.003181012
58375.2419,11.5,65.6875,12.84368,-1.6875,0.003187241
58375.2444,11.5625,65.5625,11.22603,-1.875,0.003195027
58375.2469,11.6875,65.3125,9.938911,-1.6875,0.003179454
58375.2494,11.8125,65.0,9.269218,-1.375,0.00315298
58375.2519,11.625,64.875,9.149136,-1.1875,0.003160767
58375.2544,11.4375,64.8125,9.258274,-1.9375,0.003191913
58375.2569,11.5625,64.3125,9.224148,-1.5,0.003195027
58375.2594,11.6875,64.0625,8.813712,-1.1875,0.003181012
58375.2619,11.6875,63.5625,8.026702,-1.25,0.003154538
58375.2644,11.5,63.1875,7.060357,-1.6875,0.003162324
58375.2669,11.5,62.875,6.181581,-1.75,0.003184126
58375.2694,11.5,62.3125,5.583393,-1.5625,0.003182569
58375.2719,11.6875,61.75,5.299847,-1.5,0.003171668
58375.2744,11.5,61.25,5.214684,-1.375,0.003145194
58375.2769,11.5625,60.75,5.146743,-1.625,0.003151423
58375.2794,11.6875,60.375,4.957658,-1.9375,0.003174782
58375.2819,11.5625,59.6875,4.624691,-2.4375,0.003151423
58375.2844,11.4375,59.125,4.243285,-1.8125,0.00313585
58375.2869,11.4375,58.5,3.965198,-1.75,0.003138965
58375.2894,11.6875,58.0,3.909404,-1.6875,0.003151423
58375.2919,11.5,57.375,4.093028,-2.0,0.003162324
58375.2944,11.4375,56.75,4.415912,-2.0,0.003138965
58375.2969,11.5,56.375,4.703142,-1.5,0.00311249
58375.2994,11.5625,55.9375,4.783378,-2.1875,0.003121834
58375.3019,11.5,55.375,4.56557,-2.4375,0.003140522
58375.3044,11.6875,54.9375,4.080312,-2.5,0.003134293
58375.3069,11.4375,54.5625,3.471233,-2.4375,0.003109376
58375.3094,11.625,54.5625,2.942146,-2.25,0.003110933
58375.3119,11.4375,54.0,2.683952,-2.125,0.003104704
58375.3144,11.5625,53.625,2.811035,-2.125,0.003110933
58375.3169,11.4375,53.125,3.329979,-1.875,0.003114048
58375.3194,11.625,52.75,4.148919,-2.0,0.003093803
58375.3219,11.75,52.4375,5.119553,-2.6875,0.00307823
58375.3244,11.8125,52.0,6.091285,-2.875,0.00309536
58375.3269,11.8125,51.5,6.955258,-2.6875,0.003107819
58375.3294,11.4375,51.0,7.66258,-2.625,0.003089131
58375.3319,11.5,50.8125,8.215022,-2.5,0.00305487
58375.3344,11.8125,50.5,8.63972,-2.625,0.003056428
58375.3369,11.5625,49.875,8.965078,-2.5625,0.003079787
58375.3394,11.5,49.6875,9.212441,-2.25,0.003090688
58375.3419,11.625,49.4375,9.405583,-2.3125,0.003072001
58375.3444,11.625,49.125,9.587286,-2.1875,0.003048641
58375.3469,11.75,48.625,9.825878,-2.25,0.003056428
58375.3494,11.625,48.375,10.1991,-2.375,0.003064214
58375.3519,11.625,48.125,10.75715,-2.8125,0.003059542
58375.3544,11.5625,47.75,11.4828,-2.875,0.00305487
58375.3569,11.5,47.375,12.27369,-2.875,0.003047084
58375.3594,11.625,47.125,12.96467,-2.375,0.003043969
58375.3619,11.6875,46.9375,13.38817,-2.5,0.00305487
58375.3644,11.6875,46.6875,13.44819,-2.75,0.003053313
58375.3669,11.5,46.375,13.17143,-2.75,0.003040855
58375.3694,11.5,46.1875,12.70659,-2.6875,0.003040855
58375.3719,11.6875,45.9375,12.26559,-2.375,0.003053313
58375.3744,11.5625,45.75,12.03116,-2.3125,0.003056428
58375.3769,11.75,45.6875,12.07477,-2.0625,0.003050198
58375.3794,11.8125,45.375,12.3263,-2.25,0.003028396
58375.3819,11.6875,45.0625,12.61053,-2.5,0.003036183
58375.3844,11.75,45.0,12.73318,-2.4375,0.003043969
58375.3869,11.875,44.75,12.5734,-2.3125,0.003026839
58375.3894,11.5625,44.4375,12.13695,-1.9375,0.003006594
58375.3919,11.5625,44.1875,11.54525,-2.125,0.002998808
58375.3944,11.6875,44.0625,10.96887,-2.0,0.003022167
58375.3969,11.875,43.9375,10.54189,-1.75,0.003036183
58375.3994,11.625,43.75,10.30237,-1.9375,0.00303774
58375.4019,11.625,43.5625,10.18721,-1.9375,0.003043969
58375.4044,11.75,43.5625,10.07969,-2.5,0.003064214
58375.4069,11.75,43.3125,9.88034,-2.0625,0.003109376
58375.4094,11.6875,42.9375,9.561757,-2.0625,0.003138965
58375.4119,11.8125,43.0,9.179192,-2.0625,0.003117162
58375.4144,11.75,42.75,8.83514,-2.125,0.003101589
58375.4169,11.625,42.5625,8.620893,-1.9375,0.003115605
58375.4194,11.5625,42.625,8.569042,-2.0625,0.003159209
58375.4219,11.75,42.375,8.640423,-1.9375,0.003168553
58375.4244,11.75,42.375,8.749574,-1.6875,0.00313585
58375.4269,11.75,42.1875,8.811915,-1.625,0.003084459
58375.4294,11.8125,41.875,8.784713,-1.75,0.003062657
58375.4319,11.75,41.8125,8.681976,-2.0625,0.003045527
58375.4344,11.875,41.75,8.55829,-2.125,0.003003479
58375.4369,11.8125,41.625,8.474196,-2.25,0.002983235
58375.4394,11.8125,41.4375,8.463846,-1.5,0.002964547
58375.4419,11.75,41.25,8.521352,-1.75,0.00296299
58375.4444,11.8125,41.1875,8.60953,-1.9375,0.002972333
58375.4469,11.875,41.1875,8.682344,-1.8125,0.002945859
58375.4494,11.875,41.0625,8.707217,-1.875,0.002920942
58375.4519,11.875,40.75,8.676253,-1.75,0.002913156
58375.4544,11.6875,40.75,8.603986,-2.0625,0.002928729
58375.4569,11.875,40.8125,8.516073,-2.125,0.002938073
58375.4594,11.9375,40.6875,8.436605,-2.0,0.002920942
58375.4619,12.0,40.4375,8.379319,-2.3125,0.00289914
58375.4644,12.0,40.375,8.344422,-2.6875,0.002902255
58375.4669,11.9375,40.25,8.318961,-2.5,0.002916271
58375.4694,11.8125,40.125,8.280808,-2.0,0.002914713
58375.4719,12.0,40.0,8.205101,-2.0,0.002897583
58375.4744,12.0625,39.9375,8.072762,-2.3125,0.002886682
58375.4769,12.0625,39.9375,7.878464,-2.375,0.002886682
58375.4794,12.0625,39.75,7.632886,-2.9375,0.002911599
58375.4819,12.0625,39.5625,7.356724,-2.8125,0.002902255
58375.4844,11.9375,39.5625,7.066752,-2.9375,0.00288201
58375.4869,12.0625,39.5625,6.76165,-2.8125,0.002867994
58375.4894,12.125,39.4375,6.418576,-2.4375,0.002827504
58375.4919,12.125,39.125,6.005238,-2.6875,0.002797916
58375.4944,12.0,39.0625,5.504357,-2.9375,0.002825947
58375.4969,11.875,39.0625,4.93647,-2.375,0.002931844
58375.4994,12.0625,39.1875,4.363936,-2.5625,0.003092246
58375.5019,12.1875,39.1875,3.868496,-2.5,0.00331494
58375.5044,12.125,39.0,3.508719,-2.375,0.003465998
58375.5069,12.0625,38.8125,3.281889,-2.3125,0.003240189
58375.5094,12.125,38.8125,3.115924,-2.5625,0.002737181
58375.5119,12.0625,38.75,2.902825,-2.3125,0.00237433
58375.5144,12.25,38.875,2.561744,-2.375,0.002372773
58375.5169,12.1875,38.625,2.096258,-2.375,0.002433507
58375.5194,12.1875,38.6875,1.608153,-2.4375,0.002492685
58375.5219,12.1875,38.6875,1.25089,-2.5,0.002572107
58375.5244,12.1875,38.75,1.140537,-2.6875,0.002659316
58375.5269,12.125,38.5,1.272209,-2.375,0.002744968
58375.5294,12.1875,38.375,1.497345,-2.1875,0.002779228
58375.5319,12.0,38.25,1.588428,-2.3125,0.002785457
58375.5344,12.1875,38.125,1.364822,-2.4375,0.002788572
58375.5369,12.125,38.1875,0.8165843,-2.75,0.002805702
58375.5394,12.0625,38.0,0.1497774,-2.375,0.002829062
58375.5419,12.1875,38.0,-0.2901559,-2.4375,0.002825947
58375.5444,12.125,38.0,-0.1936766,-2.4375,0.00280103
58375.5469,12.3125,38.0,0.5227289,-2.75,0.002790129
58375.5494,12.0625,37.875,1.618648,-2.625,0.002804145
58375.5519,12.25,37.6875,2.59616,-2.25,0.002815046
58375.5544,12.3125,37.9375,2.91905,-2.0625,0.002805702
58375.5569,12.3125,37.75,2.290418,-2.0,0.002788572
58375.5594,12.1875,37.5,0.8481853,-2.0625,0.002793244
58375.5619,12.25,37.5,-0.8351944,-2.0625,0.002811931
58375.5644,12.3125,37.5625,-1.966152,-2.5,0.002822833
58375.5669,12.3125,37.375,-1.870791,-2.4375,0.00280726
58375.5694,12.3125,37.4375,-0.3037286,-2.5625,0.002788572
58375.5719,12.1875,37.25,2.431292,-2.1875,0.002802588
58375.5744,12.125,37.375,5.616597,-2.0625,0.002813489
58375.5769,12.4375,37.375,8.453012,-1.8125,0.002808817
58375.5794,12.3125,37.125,10.4325,-1.6875,0.002787015
58375.5819,12.1875,37.25,11.57001,-2.0,0.002765212
58375.5844,12.0625,37.0625,12.38206,-1.875,0.002774556
58375.5869,12.1875,37.1875,13.62506,-1.9375,0.002790129
58375.5894,12.3125,37.125,15.92487,-1.8125,0.002796358
58375.5919,12.25,36.875,19.48038,-2.1875,0.002755869
58375.5944,12.25,36.6875,23.98252,-2.0,0.002746525
58375.5969,12.25,36.8125,28.77883,-2.8125,0.002762098
58375.5994,12.375,36.875,33.19072,-2.75,0.002760541
58375.6019,12.1875,36.6875,36.81884,-2.5,0.002744968
58375.6044,12.375,36.5625,39.68723,-2.5,0.002735624
58375.6069,12.3125,36.625,42.16608,-2.0,0.002732509
58375.6094,12.375,36.5,44.72934,-1.9375,0.002737181
58375.6119,12.1875,36.5625,47.68277,-2.1875,0.002724723
58375.6144,12.1875,36.625,51.00465,-2.125,0.002707592
58375.6169,12.25,36.5,54.37255,-2.4375,0.002704478
58375.6194,12.375,36.25,57.34813,-2.3125,0.002716936
58375.6219,12.3125,36.3125,59.61051,-2.25,0.002729395
58375.6244,12.25,36.1875,61.11324,-2.3125,0.002707592
58375.6269,12.125,36.1875,62.08824,-2.8125,0.002678004
58375.6294,12.1875,36.25,62.90681,-2.4375,0.00266866
58375.6319,12.1875,36.0,63.88235,-3.0625,0.002690462
58375.6344,12.25,35.8125,65.12199,-2.9375,0.002704478
58375.6369,12.0625,36.0,66.50085,-2.8125,0.00270292
58375.6394,12.3125,35.875,67.76191,-2.5625,0.002684233
58375.6419,12.3125,35.6875,68.67648,-2.6875,0.002682676
58375.6444,12.25,35.6875,69.17432,-2.625,0.00270915
58375.6469,12.125,35.875,69.37678,-2.4375,0.002713822
58375.6494,12.3125,35.6875,69.52257,-2.1875,0.002695134
58375.6519,12.3125,35.8125,69.83613,-2.9375,0.00268579
58375.6544,12.125,35.625,70.41391,-2.9375,0.002692019
58375.6569,12.25,35.6875,71.18842,-2.625,0.002723165
58375.6594,12.375,35.8125,71.9827,-2.5,0.002730952
58375.6619,12.1875,35.875,72.61803,-1.8125,0.002707592
58375.6644,12.1875,35.875,73.01231,-2.125,0.002698249
58375.6669,12.1875,35.9375,73.21708,-2.25,0.002701363
58375.6694,12.25,36.25,73.37846,-2.125,0.002727837
58375.6719,12.1875,36.375,73.65025,-2.375,0.002727837
58375.6744,12.125,36.4375,74.1093,-2.1875,0.002713822
58375.6769,12.25,37.1875,74.71944,-2.8125,0.002710707
58375.6794,12.3125,37.625,75.35793,-2.375,0.002729395
58375.6819,12.25,38.0625,75.88529,-1.9375,0.00274341
58375.6844,12.1875,38.625,76.21695,-2.5625,0.002724723
58375.6869,12.4375,39.4375,76.35771,-2.375,0.00270915
58375.6894,12.3125,40.0,76.38526,-2.0,0.002715379
58375.6919,12.3125,40.6875,76.39588,-2.3125,0.002732509
58375.6944,12.5,41.3125,76.44602,-2.75,0.002735624
58375.6969,12.4375,41.8125,76.52275,-2.4375,0.002695134
58375.6994,12.375,42.3125,76.55716,-2.125,0.002678004
58375.7019,12.4375,43.0625,76.47036,-2.0625,0.002692019
58375.7044,12.4375,43.5625,76.22394,-2.3125,0.002704478
58375.7069,12.4375,44.0,75.84599,-1.9375,0.002682676
58375.7094,12.5,44.375,75.41859,-1.9375,0.002667103
58375.7119,12.5,45.25,75.03486,-2.1875,0.002670217
58375.7144,12.5625,45.75,74.75005,-2.75,0.002674889
58375.7169,12.4375,46.375,74.55422,-2.9375,0.002692019
58375.7194,12.625,47.125,74.38124,-2.8125,0.002710707
58375.7219,12.6875,47.6875,74.14851,-2.75,0.00270915
58375.7244,12.6875,48.5625,73.80474,-2.8125,0.002732509
58375.7269,12.875,49.125,73.35879,-2.8125,0.002769884
58375.7294,12.8125,50.0625,72.87368,-2.5,0.002811931
58375.7319,12.75,50.6875,72.42872,-2.5,0.002818161
58375.7344,12.8125,51.6875,72.07164,-2.5,0.002813489
58375.7369,12.9375,52.5,71.78889,-2.75,0.002852421
58375.7394,12.8125,53.25,71.51261,-2.5625,0.002888239
58375.7419,12.875,54.0,71.16198,-2.5,0.00289914
58375.7444,12.9375,54.75,70.69492,-2.8125,0.002889796
58375.7469,12.75,55.375,70.14058,-3.1875,0.002883567
58375.7494,12.75,56.125,69.59078,-3.625,0.002880453
58375.7519,13.0,56.875,69.15132,-3.6875,0.002908484
58375.7544,13.0,57.5,68.87796,-2.875,0.002910041
58375.7569,12.8125,58.3125,68.73415,-2.6875,0.002880453
58375.7594,13.0625,59.125,68.59883,-3.0625,0.002885125
58375.7619,12.875,59.6875,68.32532,-3.0,0.002885125
58375.7644,12.9375,60.25,67.82216,-3.0625,0.002889796
58375.7669,13.125,61.125,67.11027,-2.9375,0.002889796
58375.7694,12.9375,61.75,66.32073,-2.9375,0.002869552
58375.7719,12.9375,62.25,65.62666,-2.5625,0.00286488
58375.7744,13.0625,62.8125,65.14027,-2.75,0.002878895
58375.7769,13.125,63.25,64.83018,-2.875,0.002889796
58375.7794,13.0625,63.75,64.50795,-2.6875,0.00288201
58375.7819,13.25,64.375,63.89907,-2.8125,0.002855536
58375.7844,13.25,64.625,62.76757,-2.75,0.002874223
58375.7869,13.0,65.0,61.0296,-2.625,0.002892911
58375.7894,13.25,65.25,58.79313,-2.875,0.002908484
58375.7919,13.1875,65.625,56.29758,-2.9375,0.002894468
58375.7944,13.0,66.0625,53.78174,-3.625,0.002872666
58375.7969,13.3125,66.4375,51.35202,-3.0625,0.002885125
58375.7994,13.1875,66.5,48.92793,-2.9375,0.002903812
58375.8019,13.0625,66.6875,46.30491,-2.6875,0.002908484
58375.8044,13.25,67.125,43.30959,-2.5625,0.002902255
58375.8069,13.1875,67.1875,39.9669,-2.625,0.002888239
58375.8094,13.25,67.25,36.58345,-2.4375,0.002903812
58375.8119,13.3125,67.5,33.68633,-2.8125,0.002928729
58375.8144,13.25,67.375,31.82962,-3.0625,0.002925614
58375.8169,13.125,67.4375,31.35225,-2.75,0.002900698
58375.8194,13.25,67.6875,32.20317,-2.9375,0.002905369
58375.8219,13.1875,67.625,33.92395,-2.875,0.002931844
58375.8244,13.1875,67.75,35.80516,-2.75,0.002930286
58375.8269,13.25,67.6875,37.15058,-2.75,0.002927172
58375.8294,13.125,67.5625,37.5298,-3.125,0.00289914
58375.8319,13.1875,67.625,36.90675,-2.6875,0.002902255
58375.8344,13.1875,67.25,35.59375,-2.875,0.002930286
58375.8369,13.25,67.1875,34.06513,-2.6875,0.002919385
58375.8394,13.3125,67.125,32.72926,-3.5,0.002913156
58375.8419,13.3125,66.6875,31.76918,-3.25,0.002914713
58375.8444,13.3125,66.5625,31.11906,-3.0625,0.002914713
58375.8469,13.375,66.5625,30.56745,-3.375,0.002927172
58375.8494,13.25,66.1875,29.91611,-3.4375,0.002924057
58375.8519,13.1875,66.0,29.10131,-3.125,0.002913156
58375.8544,13.3125,65.4375,28.21619,-2.8125,0.002908484
58375.8569,13.25,64.9375,27.43365,-2.625,0.002930286
58375.8594,13.1875,64.5625,26.88609,-2.5,0.002942745
58375.8619,13.25,64.125,26.57863,-2.6875,0.002933401
58375.8644,13.1875,63.6875,26.38728,-3.0625,0.002925614
58375.8669,13.125,63.1875,26.13919,-2.6875,0.002930286
58375.8694,13.3125,62.875,25.72298,-3.0625,0.002947417
58375.8719,13.25,62.25,25.16055,-3.125,0.00295676
58375.8744,13.25,61.5625,24.59607,-3.1875,0.002952089
58375.8769,13.25,61.125,24.20924,-3.0625,0.002936516
58375.8794,13.375,60.4375,24.10533,-3.125,0.002936516
58375.8819,13.3125,59.875,24.24899,-3.4375,0.002967662
58375.8844,13.25,59.4375,24.48113,-3.0625,0.002977005
58375.8869,13.3125,58.9375,24.60974,-3.3125,0.002981677
58375.8894,13.3125,58.375,24.52058,-3.0,0.002978563
58375.8919,13.25,58.0,24.2415,-3.1875,0.002981677
58375.8944,13.4375,57.625,23.92096,-2.9375,0.003009709
58375.8969,13.3125,57.25,23.73155,-2.625,0.003003479
58375.8994,13.375,57.0,23.75531,-2.9375,0.002984792
58375.9019,13.3125,56.5,23.91941,-3.125,0.003008151
58375.9044,13.25,56.3125,24.02386,-3.25,0.003034625
58375.9069,13.375,55.75,23.85036,-3.25,0.00305487
58375.9094,13.3125,55.375,23.29406,-3.3125,0.003047084
58375.9119,13.25,55.0625,22.44375,-2.875,0.003034625
58375.9144,13.375,54.625,21.56211,-2.5,0.003043969
58375.9169,13.1875,54.1875,20.97091,-2.5,0.003059542
58375.9194,13.25,53.9375,20.89723,-2.3125,0.003068886
58375.9219,13.5,53.6875,21.3599,-2.5,0.003059542
58375.9244,13.25,53.125,22.15497,-2.25,0.003067329
58375.9269,13.3125,52.875,22.94772,-2.0625,0.003068886
58375.9294,13.3125,52.375,23.42469,-2.375,0.003076673
58375.9319,13.25,52.0,23.42974,-2.8125,0.003092246
58375.9344,13.375,52.0,23.01926,-2.3125,0.003073558
58375.9369,13.4375,51.4375,22.41481,-2.3125,0.00307823
58375.9394,13.25,51.0,21.88331,-2.0625,0.003098475
58375.9419,13.3125,50.6875,21.6104,-2.1875,0.003110933
58375.9444,13.4375,50.5,21.62807,-2.4375,0.003096917
58375.9469,13.25,50.1875,21.82616,-2.0625,0.003073558
58375.9494,13.1875,50.0,22.03143,-2.375,0.003073558
58375.9519,13.25,49.75,22.10475,-2.375,0.003098475
58375.9544,13.375,49.5,22.00451,-2.3125,0.00311249
58375.9569,13.4375,49.1875,21.78868,-2.375,0.00311249
58375.9594,13.3125,48.9375,21.56359,-1.875,0.003086016
58375.9619,13.5,48.875,21.41618,-2.3125,0.003098475
58375.9644,13.3125,48.5625,21.37071,-2.625,0.003117162
58375.9669,13.1875,48.25,21.39121,-2.5625,0.003120277
58375.9694,13.5,48.1875,21.42184,-2.1875,0.003109376
58375.9719,13.25,48.0,21.43488,-2.0,0.003096917
58375.9744,13.25,47.625,21.45423,-2.4375,0.003082902
58375.9769,13.5,47.5,21.53998,-2.6875,0.003098475
58375.9794,13.4375,47.5,21.74512,-2.5625,0.003107819
58375.9819,13.25,46.9375,22.07265,-2.5,0.003096917
58375.9844,13.5,46.9375,22.46137,-2.3125,0.003104704
58375.9869,13.3125,46.625,22.81116,-1.625,0.003126506
58375.9894,13.375,46.4375,23.03406,-2.0,0.003166996
58375.9919,13.3125,46.375,23.10211,-1.9375,0.00319347
58375.9944,13.4375,46.1875,23.06406,-2.1875,0.003199699
58375.9969,13.375,45.875,23.02076,-2.125,0.003204371
58375.9994,13.3125,45.8125,23.07213,-2.125,0.003209043
58376.0019,13.4375,45.75,23.26447,-2.1875,0.00321683
58376.0044,13.4375,45.3125,23.56632,-2.125,0.003226173
58376.0069,13.375,45.4375,23.88505,-2.0,0.003229288
58376.0094,13.625,45.125,24.11458,-2.3125,0.00323396
58376.0119,13.375,44.9375,24.1875,-2.0,0.003226173
58376.0144,13.4375,44.6875,24.1052,-2.375,0.003184126
58376.0169,13.625,44.75,23.93169,-2.1875,0.003151423
58376.0194,13.375,44.3125,23.75692,-1.875,0.00311872
58376.0219,13.5,44.3125,23.65184,-2.1875,0.003106261
58376.0244,13.6875,44.125,23.63721,-2.25,0.003101589
58376.0269,13.4375,43.875,23.67966,-2.5,0.003070443
58376.0294,13.375,43.875,23.71424,-2.625,0.003047084
58376.0319,13.4375,43.6875,23.67879,-2.0625,0.003031511
58376.0344,13.375,43.5625,23.54194,-1.9375,0.003036183
58376.0369,13.6875,43.625,23.31338,-2.375,0.003033068
58376.0394,13.5,43.1875,23.03432,-2.0625,0.003023724
58376.0419,13.625,43.1875,22.75616,-2.3125,0.00299725
58376.0444,13.4375,43.0,22.51954,-2.5,0.002989464
58376.0469,13.375,42.8125,22.3425,-2.4375,0.003003479
58376.0494,13.5,42.8125,22.22056,-2.6875,0.002998808
58376.0519,13.5,42.6875,22.13458,-2.5625,0.002989464
58376.0544,13.4375,42.5625,22.06091,-2.5,0.002981677
58376.0569,13.5625,42.5,21.97877,-2.625,0.002970776
58376.0594,13.6875,42.4375,21.87368,-3.25,0.002994136
58376.0619,13.5625,42.125,21.73861,-2.9375,0.003000365
58376.0644,13.4375,42.0625,21.573,-2.75,0.002967662
58376.0669,13.5625,42.125,21.38113,-2.9375,0.002966104
58376.0694,13.5,42.0,21.16854,-2.6875,0.002973891
58376.0719,13.5,41.9375,20.938,-2.75,0.00298012
58376.0744,13.625,41.9375,20.68768,-2.5,0.002972333
58376.0769,13.625,41.75,20.41384,-2.375,0.002933401
58376.0794,13.5625,41.625,20.11913,-2.4375,0.002860208
58376.0819,13.625,41.5625,19.82281,-2.1875,0.002853979
58376.0844,13.6875,41.4375,19.5655,-2.3125,0.002964547
58376.0869,13.5625,41.3125,19.40249,-2.375,0.003148308
58376.0894,13.5625,41.3125,19.38469,-2.0625,0.003397476
58376.0919,13.6875,41.25,19.53496,-1.75,0.003618613
58376.0944,13.625,41.1875,19.83218,-1.9375,0.003534519
58376.0969,13.5,40.9375,20.21389,-1.625,0.003029954
58376.0994,13.75,41.0625,20.59969,-2.0,0.002396132
58376.1019,13.75,40.75,20.92468,-2.125,0.002350971
58376.1044,13.625,40.75,21.16528,-2.3125,0.002447523
58376.1069,13.5625,40.6875,21.34114,-2.3125,0.002562763
58376.1094,13.6875,40.625,21.49012,-2.375,0.002674889
58376.1119,13.5625,40.625,21.62965,-2.25,0.002752754
58376.1144,13.625,40.5625,21.72862,-1.875,0.00282439
58376.1169,13.75,40.4375,21.71069,-1.75,0.002886682
58376.1194,13.5,40.5,21.49437,-2.0625,0.002934958
58376.1219,13.625,40.25,21.05101,-2.0625,0.002936516
58376.1244,13.6875,40.25,20.44787,-2.5,0.002917828
58376.1269,13.5,40.125,19.84494,-2.9375,0.002928729
58376.1294,13.75,40.0,19.43638,-2.875,0.002938073
58376.1319,13.75,40.0,19.35954,-2.25,0.002953646
58376.1344,13.6875,39.9375,19.61489,-2.0,0.002944302
58376.1369,13.5,40.0,20.04405,-2.4375,0.002927172
58376.1394,13.625,40.0,20.38761,-2.5,0.002934958
58376.1419,13.5625,39.625,20.40626,-1.75,0.002967662
58376.1444,13.5625,39.5,20.01061,-2.125,0.002966104
58376.1469,13.6875,39.5625,19.33577,-2.5,0.002942745
58376.1494,13.625,39.625,18.7183,-2.0,0.002941187
58376.1519,13.6875,39.5625,18.57724,-1.9375,0.002944302
58376.1544,13.6875,39.5,19.24959,-1.6875,0.002959875
58376.1569,13.625,39.375,20.85359,-2.1875,0.002966104
58376.1594,13.75,39.1875,23.24345,-2.5,0.002931844
58376.1619,13.5625,39.3125,26.07746,-2.375,0.002930286
58376.1644,13.9375,39.125,28.9667,-2.5,0.002941187
58376.1669,13.6875,38.9375,31.6355,-2.875,0.002952089
58376.1694,13.5,39.0,34.02044,-3.0625,0.002942745
58376.1719,13.625,39.0,36.26636,-2.875,0.002919385
58376.1744,13.5625,38.9375,38.6288,-2.6875,0.0029225
58376.1769,13.625,38.875,41.33537,-2.5625,0.002938073
58376.1794,13.5,38.8125,44.47413,-2.0,0.002934958
58376.1819,13.625,38.8125,47.95774,-2.1875,0.002919385
58376.1844,13.5,38.5,51.57077,-2.125,0.002903812
58376.1869,13.5625,38.75,55.06729,-2.3125,0.002917828
58376.1894,13.5,38.4375,58.26415,-2.375,0.002930286
58376.1919,13.5,38.375,61.08659,-2.625,0.0029225
58376.1944,13.625,38.5,63.55363,-2.5,0.002900698
58376.1969,13.4375,38.25,65.72408,-2.6875,0.002889796
58376.1994,13.3125,38.1875,67.64235,-2.6875,0.00289914
58376.2019,13.5,38.25,69.31615,-2.5625,0.002924057
58376.2044,13.25,38.0,70.73389,-1.875,0.002920942
58376.2069,13.375,38.125,71.9013,-2.0625,0.002897583
58376.2094,13.5,38.125,72.86594,-2.125,0.002897583
58376.2119,13.4375,37.8125,73.70945,-2.3125,0.002914713
58376.2144,13.5,37.875,74.50717,-2.1875,0.002927172
58376.2169,13.375,37.75,75.28052,-2.3125,0.002911599
58376.2194,13.375,37.6875,75.97465,-2.375,0.002888239
58376.2219,13.3125,37.6875,76.4789,-2.25,0.002902255
58376.2244,13.4375,37.625,76.68565,-2.25,0.0029225
58376.2269,13.3125,37.25,76.5575,-2.4375,0.002919385
58376.2294,13.5,37.4375,76.16522,-1.75,0.002908484
58376.2319,13.375,37.5,75.67234,-2.375,0.002892911
58376.2344,13.3125,37.3125,75.27106,-2.4375,0.002902255
58376.2369,13.3125,37.4375,75.10026,-2.1875,0.002931844
58376.2394,13.375,37.25,75.18747,-2.25,0.0029225
58376.2419,13.125,37.375,75.44395,-1.6875,0.002903812
58376.2444,13.25,37.375,75.71646,-1.875,0.002908484
58376.2469,13.3125,37.375,75.86747,-1.8125,0.002914713
58376.2494,13.1875,37.5625,75.8433,-1.4375,0.002919385
58376.2519,13.4375,37.625,75.69577,-1.5,0.002917828
58376.2544,13.375,37.6875,75.54838,-1.4375,0.002910041
58376.2569,13.25,37.9375,75.52723,-2.0,0.002913156
58376.2594,13.375,38.125,75.69412,-2.1875,0.002933401
58376.2619,13.0625,38.375,76.01636,-1.9375,0.002933401
58376.2644,13.375,38.75,76.38705,-2.125,0.002911599
58376.2669,13.3125,39.0625,76.68246,-2.3125,0.002902255
58376.2694,13.125,39.6875,76.82365,-2.0,0.002905369
58376.2719,13.3125,40.25,76.80962,-1.6875,0.002916271
58376.2744,13.1875,41.0,76.70643,-1.75,0.002911599
58376.2769,13.3125,41.6875,76.60091,-1.9375,0.002886682
58376.2794,13.25,42.25,76.54676,-2.125,0.002867994
58376.2819,13.125,42.875,76.53307,-2.0625,0.002871109
58376.2844,13.25,43.625,76.49275,-1.9375,0.002892911
58376.2869,13.3125,44.0,76.34464,-1.9375,0.002874223
58376.2894,13.25,44.5625,76.0435,-2.3125,0.002838406
58376.2919,13.4375,45.0625,75.60835,-2.0,0.002835291
58376.2944,13.1875,45.5,75.1124,-2.375,0.002839963
58376.2969,13.25,46.1875,74.64027,-2.375,0.002838406
58376.2994,13.4375,46.75,74.23729,-1.875,0.002825947
58376.3019,13.3125,47.25,73.8818,-2.125,0.002805702
58376.3044,13.375,47.875,73.49778,-1.5,0.002808817
58376.3069,13.3125,48.75,73.00204,-1.6875,0.002838406
58376.3094,13.25,49.3125,72.35997,-1.75,0.002860208
58376.3119,13.25,50.0625,71.61681,-1.875,0.002860208
58376.3144,13.3125,50.6875,70.88234,-2.3125,0.002871109
58376.3169,13.1875,51.6875,70.27312,-2.0625,0.002885125
58376.3194,13.125,52.3125,69.84291,-2.125,0.002924057
58376.3219,13.3125,53.3125,69.5413,-1.75,0.002950531
58376.3244,13.125,53.9375,69.22881,-1.5625,0.002950531
58376.3269,13.1875,54.8125,68.74531,-1.625,0.002969219
58376.3294,13.1875,55.625,67.99981,-1.5,0.00298012
58376.3319,13.125,56.3125,67.0314,-2.375,0.003001922
58376.3344,13.1875,57.1875,66.00318,-1.6875,0.003001922
58376.3369,13.3125,57.75,65.12294,-1.5,0.002975448
58376.3394,13.0625,58.625,64.52811,-1.375,0.002975448
58376.3419,13.0625,59.375,64.19589,-1.4375,0.00298012
58376.3444,13.0625,60.0,63.9322,-1.375,0.002986349
58376.3469,13.1875,60.5,63.45578,-1.375,0.002972333
58376.3494,13.25,61.3125,62.5402,-1.6875,0.002947417
58376.3519,13.0,62.0,61.14093,-1.6875,0.002958318
58376.3544,13.3125,62.4375,59.43486,-1.5,0.002975448
58376.3569,13.125,62.875,57.74138,-1.8125,0.002972333
58376.3594,13.125,63.75,56.35725,-1.8125,0.002952089
58376.3619,13.1875,64.1875,55.38767,-2.0625,0.002928729
58376.3644,13.1875,64.625,54.6662,-2.25,0.002927172
58376.3669,13.25,65.125,53.81547,-2.1875,0.002955203
58376.3694,13.125,65.6875,52.4283,-2.1875,0.002958318
58376.3719,13.125,65.75,50.27987,-2.4375,0.002938073
58376.3744,13.0625,66.3125,47.45911,-1.9375,0.002928729
58376.3769,13.25,66.5,44.34317,-1.6875,0.00293963
58376.3794,13.125,66.875,41.41939,-1.8125,0.002958318
58376.3819,13.25,67.25,39.04285,-1.6875,0.002952089
58376.3844,13.25,67.5625,37.25767,-2.0,0.002927172
58376.3869,13.3125,67.5625,35.78353,-2.0625,0.0029225
58376.3894,13.25,67.875,34.18328,-1.9375,0.002934958
58376.3919,13.1875,68.0,32.12933,-1.6875,0.002947417
58376.3944,13.1875,67.9375,29.62831,-1.8125,0.002933401
58376.3969,13.1875,68.375,27.07784,-2.3125,0.002919385
58376.3994,13.1875,68.125,25.11181,-2.375,0.002925614
58376.4019,13.25,68.375,24.30174,-2.0625,0.002931844
58376.4044,13.125,68.3125,24.86206,-2.1875,0.002933401
58376.4069,13.0625,68.4375,26.50982,-1.5,0.002936516
58376.4094,13.125,68.375,28.5549,-2.0625,0.002906927
58376.4119,13.25,68.375,30.1814,-2.125,0.002903812
58376.4144,13.1875,68.125,30.78329,-1.9375,0.002927172
58376.4169,13.0625,68.125,30.19236,-2.125,0.002910041
58376.4194,13.25,67.9375,28.6942,-2.375,0.002896026
58376.4219,13.0,67.75,26.83771,-2.5,0.002889796
58376.4244,13.0625,67.6875,25.14695,-2.9375,0.002885125
58376.4269,13.0625,67.4375,23.88592,-2.25,0.002902255
58376.4294,13.0625,67.0625,22.98842,-2.3125,0.002894468
58376.4319,13.125,67.0,22.17,-2.0625,0.002866437
58376.4344,13.0,66.6875,21.14104,-2.0,0.002863322
58376.4369,12.9375,66.375,19.79347,-1.8125,0.002885125
58376.4394,13.125,66.0,18.25979,-2.125,0.002900698
58376.4419,13.0,65.4375,16.82412,-2.25,0.002888239
58376.4444,12.8125,65.0625,15.75059,-2.3125,0.00285865
58376.4469,13.0625,64.75,15.13717,-2.1875,0.002861765
58376.4494,12.875,64.375,14.87959,-2.3125,0.002886682
58376.4519,12.8125,63.75,14.75856,-2.1875,0.002889796
58376.4544,12.9375,63.1875,14.58757,-1.8125,0.002875781
58376.4569,12.9375,62.75,14.32553,-1.8125,0.002872666
58376.4594,12.8125,62.0625,14.08408,-1.6875,0.002877338
58376.4619,12.6875,61.5625,14.02917,-1.8125,0.002888239
58376.4644,12.875,61.0625,14.24383,-1.75,0.002878895
58376.4669,12.9375,60.3125,14.64466,-1.375,0.002860208
58376.4694,12.6875,59.8125,15.0103,-1.5,0.002857093
58376.4719,12.9375,59.25,15.10906,-2.0625,0.002877338
58376.4744,12.9375,58.5625,14.8475,-2.5,0.002903812
58376.4769,12.5625,58.375,14.34439,-1.875,0.002877338
58376.4794,12.8125,57.875,13.87654,-1.875,0.002850864
58376.4819,12.6875,57.375,13.72068,-2.0,0.002861765
58376.4844,12.75,57.1875,13.98264,-2.1875,0.00288201
58376.4869,12.75,56.6875,14.51857,-2.1875,0.002888239
58376.4894,12.625,56.25,15.00435,-2.625,0.002880453
58376.4919,12.5625,55.875,15.1225,-2.25,0.002860208
58376.4944,12.625,55.75,14.76373,-1.6875,0.00285865
58376.4969,12.5625,55.0,14.12445,-2.25,0.002872666
58376.4994,12.5,54.75,13.63477,-2.6875,0.002880453
58376.5019,12.625,54.5,13.74528,-2.3125,0.002872666
58376.5044,12.625,53.9375,14.68324,-2.4375,0.002866437
58376.5069,12.5,53.5625,16.31045,-1.8125,0.002872666
58376.5094,12.625,53.1875,18.16483,-2.1875,0.002885125
58376.5119,12.5625,52.875,19.67029,-2.3125,0.002874223
58376.5144,12.4375,52.5,20.40833,-2.5,0.002849307
58376.5169,12.3125,52.1875,20.31053,-2.0,0.002850864
58376.5194,12.5625,51.8125,19.67384,-1.9375,0.002861765
58376.5219,12.5625,51.25,18.99481,-2.75,0.002889796
58376.5244,12.375,50.875,18.71388,-2.875,0.00288201
58376.5269,12.4375,50.6875,19.00539,-2.625,0.002861765
58376.5294,12.5,50.4375,19.71832,-2.6875,0.002867994
58376.5319,12.3125,50.0,20.48872,-2.0625,0.002878895
58376.5344,12.375,50.0625,20.95216,-2.375,0.002894468
58376.5369,12.4375,49.5,20.93499,-2.1875,0.002885125
58376.5394,12.3125,49.3125,20.52355,-2.5625,0.002863322
58376.5419,12.625,49.0,19.98249,-2.5625,0.002874223
58376.5444,12.5,49.1875,19.58035,-2.375,0.002897583
58376.5469,12.25,48.5,19.42739,-2.3125,0.002888239
58376.5494,12.4375,48.5,19.41788,-2.5625,0.002874223
58376.5519,12.3125,48.1875,19.30589,-2.375,0.002875781
58376.5544,12.3125,48.0625,18.865,-2.0,0.002894468
58376.5569,12.4375,48.0,18.03695,-2.0,0.002908484
58376.5594,12.25,47.75,16.98339,-1.9375,0.002917828
58376.5619,12.0625,47.375,16.01218,-2.3125,0.002885125
58376.5644,12.25,47.25,15.42042,-2.625,0.002874223
58376.5669,12.3125,47.0625,15.34227,-2.375,0.002878895
58376.5694,12.25,46.75,15.68434,-2.0625,0.002875781
58376.5719,12.375,46.75,16.18075,-2.25,0.002869552
58376.5744,12.3125,46.375,16.53329,-2.1875,0.002861765
58376.5769,12.1875,46.125,16.5588,-2.5,0.002871109
58376.5794,12.1875,46.125,16.26573,-2.0,0.00289914
58376.5819,12.3125,45.9375,15.82505,-2.3125,0.002927172
58376.5844,12.1875,45.5625,15.45928,-2.25,0.002945859
58376.5869,12.0625,45.4375,15.31617,-2.1875,0.002973891
58376.5894,12.3125,45.375,15.39527,-2.0,0.003012823
58376.5919,12.1875,45.0,15.5617,-2.3125,0.003009709
58376.5944,12.125,45.0625,15.63144,-2.1875,0.003000365
58376.5969,12.3125,44.875,15.47519,-2.3125,0.00299725
58376.5994,12.125,44.5,15.07988,-2.25,0.003001922
58376.6019,12.0625,44.4375,14.54066,-2.5625,0.003036183
58376.6044,12.0625,44.25,13.99452,-2.5,0.003026839
58376.6069,12.375,44.125,13.5393,-2.4375,0.002986349
58376.6094,12.1875,44.0,13.18759,-2.375,0.002955203
58376.6119,12.1875,43.8125,12.87696,-2.1875,0.002925614
58376.6144,12.125,43.6875,12.5251,-2.1875,0.00289914
58376.6169,12.0625,43.5625,12.09282,-2.4375,0.002885125
58376.6194,12.0625,43.375,11.61594,-2.25,0.002885125
58376.6219,12.125,43.1875,11.18816,-2.375,0.002855536
58376.6244,12.0625,43.125,10.9074,-2.0625,0.002847749
58376.6269,12.1875,42.9375,10.81935,-2.25,0.002861765
58376.6294,12.25,42.75,10.89273,-2.375,0.002850864
58376.6319,12.0,42.75,11.03855,-2.0625,0.002825947
58376.6344,12.0625,42.375,11.16121,-2.3125,0.002804145
58376.6369,12.125,42.4375,11.20888,-2.1875,0.002821275
58376.6394,12.0625,42.25,11.19411,-2.5,0.002839963
58376.6419,12.0625,42.1875,11.17464,-2.375,0.002829062
58376.6444,11.9375,42.0,11.2092,-2.625,0.002818161
58376.6469,12.125,42.0,11.31789,-2.625,0.00280726
58376.6494,12.0625,41.8125,11.47214,-2.6875,0.002819718
58376.6519,12.0,41.8125,11.61955,-2.8125,0.002832176
58376.6544,12.0625,41.75,11.72555,-2.875,0.002827504
58376.6569,12.25,41.6875,11.80284,-2.625,0.002816603
58376.6594,12.0,41.4375,11.90737,-2.375,0.00280726
58376.6619,12.0625,41.375,12.10057,-2.0,0.002818161
58376.6644,12.25,41.5,12.40106,-2.3125,0.002830619
58376.6669,12.0625,41.1875,12.75839,-2.25,0.002813489
58376.6694,12.0,41.125,13.06959,-2.5,0.002771442
58376.6719,12.0,41.0,13.2336,-2.5625,0.002729395
58376.6744,12.1875,41.0,13.21338,-2.375,0.002758983
58376.6769,12.0,40.75,13.06878,-2.8125,0.00288201
58376.6794,12.0,40.5,12.93567,-2.6875,0.003079787
58376.6819,12.25,40.75,12.95683,-2.75,0.003336742
58376.6844,12.0,40.625,13.20002,-2.6875,0.003515831
58376.6869,12.0,40.4375,13.60941,-2.25,0.00331494
58376.6894,12.0625,40.3125,14.02002,-2.5625,0.002713822
58376.6919,12.0625,40.5,14.23388,-2.4375,0.00219524
58376.6944,12.0625,40.1875,14.11978,-2.6875,0.00219524
58376.6969,12.0625,40.25,13.68328,-3.25,0.002290236
58376.6994,11.9375,40.125,13.06713,-3.5,0.002389903
58376.7019,12.0625,40.0,12.4797,-2.1875,0.002503586
58376.7044,12.1875,39.9375,12.08892,-2.5625,0.002598581
58376.7069,11.875,39.8125,11.93856,-2.5625,0.002678004
58376.7094,11.9375,39.75,11.93457,-2.5,0.00274341
58376.7119,12.0,39.75,11.91116,-2.0625,0.002771442
58376.7144,12.0625,39.625,11.74233,-2.0625,0.002771442
58376.7169,12.0,39.5625,11.43443,-2.3125,0.002762098
58376.7194,11.875,39.625,11.14403,-1.9375,0.002774556
58376.7219,11.9375,39.5,11.10396,-2.5,0.002805702
58376.7244,11.8125,39.5,11.49225,-2.4375,0.002799473
58376.7269,12.125,39.4375,12.31013,-2.3125,0.002793244
58376.7294,12.0,39.1875,13.34173,-2.3125,0.0027839
58376.7319,11.75,39.125,14.22679,-1.9375,0.002779228
58376.7344,11.8125,39.25,14.62144,-2.1875,0.002804145
58376.7369,11.8125,39.0,14.37369,-2.4375,0.002808817
58376.7394,12.0,38.75,13.6261,-2.1875,0.002787015
58376.7419,12.0,38.8125,12.78811,-2.25,0.002794801
58376.7444,11.9375,38.8125,12.38153,-2.375,0.002805702
58376.7469,11.875,38.8125,12.82429,-2.3125,0.002813489
58376.7494,12.0,38.8125,14.25058,-2.5,0.002793244
58376.7519,12.0,38.75,16.45105,-2.625,0.002772999
58376.7544,11.8125,38.5625,18.96262,-2.6875,0.002782343
58376.7569,12.0,38.5625,21.26856,-2.75,0.002821275
58376.7594,12.0,38.4375,23.02002,-2.8125,0.002818161
58376.7619,11.9375,38.3125,24.18031,-2.6875,0.00280103
58376.7644,11.875,38.4375,25.0305,-2.4375,0.002787015
58376.7669,11.8125,38.125,26.03853,-2.4375,0.002787015
58376.7694,11.75,38.1875,27.65389,-2.3125,0.00280726
58376.7719,11.875,38.125,30.12027,-2.0625,0.002813489
58376.7744,11.8125,37.9375,33.38484,-2.125,0.0027839
58376.7769,11.8125,37.875,37.1357,-2.25,0.002772999
58376.7794,11.875,37.9375,40.9412,-2.125,0.002788572
58376.7819,11.9375,37.875,44.42242,-2.125,0.002805702
58376.7844,11.6875,37.875,47.38248,-1.5625,0.002791687
58376.7869,11.8125,37.6875,49.84329,-2.0,0.002771442
58376.7894,11.875,37.625,51.98502,-2.25,0.002776114
58376.7919,11.875,37.625,54.0267,-2.625,0.002793244
58376.7944,11.75,37.5625,56.10816,-2.4375,0.002787015
58376.7969,11.625,37.375,58.22421,-2.1875,0.002771442
58376.7994,11.75,37.4375,60.23466,-2.0625,0.00276677
58376.8019,11.8125,37.25,61.93721,-2.4375,0.002777671
58376.8044,11.5625,37.1875,63.16331,-2.5625,0.002791687
58376.8069,11.625,37.25,63.85279,-1.75,0.002790129
58376.8094,11.5625,37.25,64.07555,-1.9375,0.002772999
58376.8119,11.5,37.0625,63.99749,-2.4375,0.002763655
58376.8144,11.5625,37.125,63.81202,-2.0625,0.002763655
58376.8169,11.625,37.0625,63.67084,-2.0625,0.002796358
58376.8194,11.5625,36.8125,63.64355,-2.125,0.002794801
58376.8219,11.5,36.75,63.71788,-2.375,0.002769884
58376.8244,11.5,36.9375,63.83351,-2.1875,0.002760541
58376.8269,11.5,36.9375,63.92777,-2.125,0.002776114
58376.8294,11.8125,36.9375,63.97017,-2.1875,0.002787015
58376.8319,11.625,36.6875,63.97301,-1.75,0.002771442
58376.8344,11.4375,36.75,63.97708,-1.75,0.002748082
58376.8369,11.625,36.8125,64.0255,-2.5,0.002755869
58376.8394,11.5625,36.9375,64.14163,-2.5,0.002772999
58376.8419,11.5625,36.9375,64.3207,-2.5,0.002788572
58376.8444,11.75,36.8125,64.53806,-2.1875,0.002777671
58376.8469,11.5625,37.0,64.7662,-1.8125,0.002751197
58376.8494,11.4375,37.125,64.98966,-2.25,0.002749639
58376.8519,11.75,37.3125,65.21011,-2.1875,0.002787015
58376.8544,11.6875,37.5625,65.44008,-2.375,0.002779228
58376.8569,11.5625,37.9375,65.69127,-2.6875,0.002749639
58376.8594,11.625,38.4375,65.9649,-3.0,0.002752754
58376.8619,11.625,38.75,66.25021,-2.4375,0.002758983
58376.8644,11.6875,39.5,66.53094,-2.1875,0.002774556
58376.8669,11.6875,39.9375,66.7951,-2.5625,0.002757426
58376.8694,11.6875,40.625,67.04187,-2.3125,0.002732509
58376.8719,11.875,41.375,67.28138,-2.3125,0.002744968
58376.8744,11.75,42.0,67.52733,-2.4375,0.002757426
58376.8769,11.75,42.5625,67.78698,-2.375,0.002762098
58376.8794,11.625,43.125,68.05344,-2.0625,0.002748082
58376.8819,11.5625,43.6875,68.30432,-2.25,0.002718493
58376.8844,11.625,44.3125,68.50581,-2.625,0.002715379
58376.8869,11.8125,44.8125,68.62069,-2.4375,0.002732509
58376.8894,11.6875,45.3125,68.61855,-2.375,0.002735624
58376.8919,11.875,45.875,68.48562,-2.4375,0.002721608
58376.8944,11.875,46.4375,68.23182,-2.125,0.002724723
58376.8969,11.8125,47.0625,67.89359,-2.0,0.002746525
58376.8994,11.8125,47.6875,67.52872,-2.375,0.002788572
58376.9019,11.75,48.375,67.20274,-2.3125,0.002805702
58376.9044,11.6875,48.9375,66.96857,-2.8125,0.002799473
58376.9069,11.9375,49.75,66.84418,-2.5,0.002833734
58376.9094,11.75,50.125,66.80104,-1.6875,0.002869552
58376.9119,11.875,51.25,66.77042,-2.1875,0.002920942
58376.9144,11.8125,51.8125,66.66966,-2.375,0.0029225
58376.9169,11.6875,52.6875,66.43783,-2.1875,0.002913156
58376.9194,11.875,53.5,66.06561,-2.6875,0.002917828
58376.9219,11.75,54.125,65.60268,-2.625,0.00293963
58376.9244,11.75,54.875,65.13596,-2.3125,0.002948974
58376.9269,11.8125,55.75,64.74712,-2.3125,0.002934958
58376.9294,11.8125,56.1875,64.47025,-2.125,0.002914713
58376.9319,11.75,57.0,64.27195,-2.875,0.002910041
58376.9344,11.9375,57.6875,64.06684,-2.1875,0.002916271
58376.9369,11.75,58.375,63.76162,-2.5625,0.002933401
58376.9394,11.9375,59.0,63.30422,-2.25,0.002911599
58376.9419,11.9375,59.5625,62.70987,-2.375,0.002891354
58376.9444,11.8125,60.125,62.04652,-2.375,0.002903812
58376.9469,11.875,60.75,61.3848,-2.5,0.002911599
58376.9494,11.8125,61.25,60.73954,-2.5,0.002911599
58376.9519,11.9375,61.75,60.03622,-2.625,0.002902255
58376.9544,11.75,62.375,59.12598,-3.125,0.002902255
58376.9569,11.8125,62.6875,57.84632,-2.6875,0.002906927
58376.9594,11.875,63.125,56.09828,-2.6875,0.002920942
58376.9619,11.75,63.375,53.89864,-2.3125,0.002920942
58376.9644,11.875,63.875,51.37633,-2.625,0.00289914
58376.9669,11.9375,64.0625,48.7116,-2.375,0.002905369
58376.9694,11.8125,64.4375,46.04778,-2.375,0.002930286
58376.9719,11.875,64.75,43.42402,-2.5625,0.002942745
58376.9744,11.9375,65.0,40.76891,-2.6875,0.002930286
58376.9769,11.875,65.25,37.96453,-2.5,0.002906927
58376.9794,11.9375,65.5,34.95203,-2.0625,0.002914713
58376.9819,11.75,65.6875,31.82377,-2.25,0.00293963
58376.9844,12.0625,65.875,28.84849,-2.25,0.002931844
58376.9869,11.9375,65.8125,26.40523,-2.4375,0.0029225
58376.9894,11.9375,66.125,24.84544,-2.5625,0.002903812
58376.9919,12.0,66.3125,24.33986,-2.75,0.002911599
58376.9944,11.75,66.3125,24.77891,-2.625,0.002931844
58376.9969,11.75,66.25,25.77527,-2.5,0.002931844
58376.9994,12.0625,66.125,26.7749,-2.75,0.002902255
58377.0019,11.875,66.1875,27.23632,-2.1875,0.002889796
58377.0044,12.0625,66.1875,26.80864,-2.0625,0.002914713
58377.0069,11.9375,66.1875,25.43863,-2.25,0.002920942
58377.0094,11.875,65.875,23.36678,-2.1875,0.002903812
58377.0119,11.9375,66.0,21.01673,-2.25,0.002880453
58377.0144,11.75,65.75,18.82488,-2.375,0.00286488
58377.0169,12.0625,65.5625,17.07939,-2.9375,0.002886682
58377.0194,11.875,65.25,15.83127,-2.625,0.002878895
58377.0219,11.875,65.0,14.90911,-2.9375,0.002871109
58377.0244,11.875,64.875,14.02653,-2.375,0.002857093
58377.0269,12.0,64.4375,12.93296,-2.625,0.002866437
58377.0294,11.9375,64.125,11.54063,-2.1875,0.002885125
58377.0319,11.9375,63.6875,9.971223,-2.0,0.002867994
58377.0344,11.875,63.4375,8.501325,-1.8125,0.00286488
58377.0369,12.0625,63.0,7.430993,-2.1875,0.002861765
58377.0394,11.9375,62.625,6.936281,-2.3125,0.002869552
58377.0419,11.75,62.0,6.976556,-1.875,0.002872666
58377.0444,12.0,61.625,7.304262,-2.4375,0.002861765
58377.0469,11.9375,60.9375,7.577238,-2.875,0.002847749
58377.0494,12.0625,60.75,7.52251,-2.9375,0.002839963
58377.0519,11.8125,60.0625,7.070828,-2.5,0.00285865
58377.0544,11.9375,59.4375,6.390556,-2.375,0.002872666
58377.0569,12.125,58.8125,5.79672,-2.0625,0.002863322
58377.0594,12.1875,58.1875,5.574437,-2.0,0.002843077
58377.0619,12.0,57.625,5.80479,-2.0,0.002836848
58377.0644,12.0,57.125,6.287931,-1.75,0.00286488
58377.0669,12.0,56.75,6.615198,-2.0625,0.002871109
58377.0694,12.125,56.25,6.367034,-2.1875,0.002847749
58377.0719,12.0,56.0,5.343848,-2.6875,0.002839963
58377.0744,12.1875,55.75,3.710467,-3.0625,0.002846192
58377.0769,12.1875,55.1875,1.969927,-2.5625,0.00286488
58377.0794,11.9375,55.0625,0.7628499,-2.4375,0.002853979
58377.0819,11.875,54.625,0.579286,-2.5625,0.002847749
58377.0844,12.0,54.3125,1.520247,-2.1875,0.002843077
58377.0869,11.875,54.0,3.230717,-2.0,0.002855536
58377.0894,12.0625,53.75,5.046486,-2.125,0.00288201
58377.0919,11.875,53.0625,6.289887,-2.0625,0.002863322
58377.0944,12.0625,53.0,6.575796,-1.9375,0.002847749
58377.0969,11.9375,52.4375,5.979403,-2.0,0.002853979
58377.0994,12.0,52.1875,4.983784,-1.8125,0.00286488
58377.1019,11.75,51.8125,4.234484,-1.75,0.002872666
58377.1044,12.0625,51.375,4.222877,-1.8125,0.002871109
58377.1069,12.0,51.0625,5.054432,-1.5,0.002855536
58377.1094,11.9375,50.9375,6.412198,-1.4375,0.002857093
58377.1119,11.875,50.375,7.727061,-1.4375,0.002869552
58377.1144,12.0,50.0,8.465134,-2.125,0.002866437
58377.1169,11.9375,49.8125,8.384284,-2.3125,0.002857093
58377.1194,11.875,49.5625,7.636046,-2.375,0.002855536
58377.1219,12.0,49.1875,6.670641,-2.25,0.002869552
58377.1244,12.0625,48.875,6.002548,-2.0625,0.002886682
58377.1269,11.8125,48.8125,5.960129,-2.1875,0.002874223
58377.1294,12.0625,48.5,6.54266,-1.9375,0.002839963
58377.1319,11.875,48.1875,7.446703,-2.0,0.002855536
58377.1344,12.0,47.9375,8.234883,-1.8125,0.002871109
58377.1369,12.0,47.75,8.552391,-2.1875,0.00288201
58377.1394,12.125,47.4375,8.281432,-2.125,0.002874223
58377.1419,11.9375,47.125,7.565458,-2.0,0.002843077
58377.1444,12.0,47.0,6.70621,-1.75,0.002847749
58377.1469,12.0625,47.0,5.99896,-2.125,0.002875781
58377.1494,12.1875,46.6875,5.594993,-2.25,0.002875781
58377.1519,12.0,46.5625,5.455418,-2.3125,0.002875781
58377.1544,12.125,46.375,5.406222,-2.375,0.002866437
58377.1569,12.0,45.9375,5.252155,-1.8125,0.002874223
58377.1594,12.0,46.0,4.883146,-1.875,0.002874223
58377.1619,11.875,45.625,4.320529,-2.0,0.002857093
58377.1644,12.0,45.4375,3.689061,-2.3125,0.002838406
58377.1669,11.9375,45.4375,3.14034,-2.5,0.002850864
58377.1694,12.0625,45.1875,2.77446,-2.25,0.00286488
58377.1719,12.0625,44.9375,2.599298,-2.375,0.002888239
58377.1744,11.875,44.875,2.541383,-2.25,0.002892911
58377.1769,11.8125,44.6875,2.493921,-2.0625,0.002900698
58377.1794,11.9375,44.5625,2.372085,-1.9375,0.002947417
58377.1819,11.9375,44.4375,2.147704,-2.0,0.002998808
58377.1844,11.9375,44.1875,1.853205,-1.9375,0.002995693
58377.1869,12.1875,44.0,1.55983,-1.9375,0.002986349
58377.1894,11.9375,44.0,1.345245,-1.875,0.002989464
58377.1919,11.875,43.8125,1.265855,-2.1875,0.003012823
58377.1944,11.9375,43.5,1.3404,-1.875,0.00305487
58377.1969,11.9375,43.375,1.546447,-1.9375,0.003040855
58377.1994,11.75,43.3125,1.826208,-2.0625,0.002998808
58377.2019,12.125,43.1875,2.099851,-2.1875,0.002975448
58377.2044,11.8125,42.8125,2.285737,-2.375,0.002961432
58377.2069,11.8125,42.6875,2.324639,-2.0625,0.002953646
58377.2094,11.75,42.75,2.201313,-2.5,0.002905369
58377.2119,11.8125,42.5,1.951895,-2.4375,0.002878895
58377.2144,11.8125,42.4375,1.650163,-2.6875,0.002875781
58377.2169,11.875,42.3125,1.374719,-2.4375,0.002885125
58377.2194,11.9375,42.1875,1.170032,-2.0,0.002889796
58377.2219,11.8125,42.0,1.023284,-1.8125,0.002889796
58377.2244,11.9375,41.9375,0.8711749,-1.5625,0.002857093
58377.2269,11.9375,41.8125,0.6364399,-2.1875,0.002853979
58377.2294,11.75,41.6875,0.2768213,-2.1875,0.002878895
58377.2319,11.8125,41.625,-0.1829389,-2.0625,0.002888239
58377.2344,11.8125,41.3125,-0.6565971,-2.625,0.002877338
58377.2369,11.8125,41.375,-1.040119,-2.25,0.002869552
58377.2394,11.875,41.375,-1.271208,-2.0625,0.002874223
58377.2419,11.8125,41.125,-1.370111,-2.8125,0.002896026
58377.2444,11.6875,41.1875,-1.435262,-2.4375,0.002889796
58377.2469,11.8125,40.9375,-1.59114,-2.1875,0.002883567
58377.2494,11.875,40.875,-1.914571,-1.8125,0.002877338
58377.2519,11.625,40.875,-2.380728,-2.5,0.00288201
58377.2544,11.625,40.875,-2.863062,-2.0625,0.002911599
58377.2569,11.875,40.5625,-3.192999,-1.9375,0.002903812
58377.2594,11.8125,40.625,-3.250368,-2.25,0.002889796
58377.2619,11.625,40.5,-3.035562,-2.1875,0.002866437
58377.2644,11.625,40.25,-2.681398,-1.75,0.002818161
58377.2669,11.8125,40.375,-2.39363,-1.625,0.002810374
58377.2694,11.8125,40.25,-2.349373,-1.625,0.002894468
58377.2719,11.9375,40.0625,-2.606125,-2.0,0.003076673
58377.2744,11.875,40.0,-3.072207,-2.4375,0.003371002
58377.2769,11.625,39.75,-3.556637,-2.3125,0.003679348
58377.2794,11.5625,39.8125,-3.872285,-2.3125,0.003666889
58377.2819,11.6875,39.75,-3.934986,-2.125,0.003110933
58377.2844,11.8125,39.75,-3.804292,-2.1875,0.002466211
58377.2869,11.875,39.6875,-3.643144,-1.75,0.002394575
58377.2894,11.6875,39.625,-3.620874,-2.25,0.002495799
58377.2919,11.5625,39.4375,-3.815218,-2.125,0.002556534
58377.2944,11.8125,39.5,-4.170356,-2.25,0.00262817
58377.2969,11.75,39.375,-4.538354,-2.25,0.002729395
58377.2994,11.75,39.375,-4.777595,-2.0,0.00280726
58377.3019,11.5625,39.25,-4.848966,-2.0,0.002869552
58377.3044,11.6875,39.3125,-4.847853,-1.875,0.002896026
58377.3069,11.75,39.125,-4.947944,-2.0625,0.002883567
58377.3094,11.75,39.125,-5.285423,-2.25,0.002894468
58377.3119,11.6875,38.875,-5.851719,-2.25,0.002902255
58377.3144,11.625,38.8125,-6.46438,-2.125,0.002924057
58377.3169,11.6875,38.6875,-6.844283,-2.25,0.002924057
58377.3194,11.6875,38.8125,-6.766747,-2.25,0.00289914
58377.3219,11.625,38.625,-6.206491,-2.3125,0.002906927
58377.3244,11.5625,38.5625,-5.390016,-2.6875,0.002925614
58377.3269,11.5,38.5,-4.713463,-2.4375,0.002933401
58377.3294,11.8125,38.5625,-4.555212,-2.5,0.002924057
58377.3319,11.6875,38.375,-5.07363,-2.0625,0.002902255
58377.3344,11.6875,38.4375,-6.096624,-2.0,0.00289914
58377.3369,11.6875,38.375,-7.169052,-1.75,0.0029225
58377.3394,11.75,38.125,-7.743998,-1.8125,0.002930286
58377.3419,11.5625,38.125,-7.429569,-2.0,0.002911599
58377.3444,11.6875,38.125,-6.169285,-2.1875,0.002903812
58377.3469,11.75,38.1875,-4.263865,-2.4375,0.002914713
58377.3494,11.75,38.1875,-2.220093,-2.375,0.002919385
58377.3519,11.75,37.9375,-0.4997947,-2.625,0.002914713
58377.3544,11.75,37.9375,0.7067485,-2.375,0.00289914
58377.3569,11.75,37.875,1.571684,-2.75,0.002905369
58377.3594,11.6875,37.625,2.541529,-2.375,0.002911599
58377.3619,11.5625,37.6875,4.116674,-2.6875,0.002920942
58377.3644,11.6875,37.6875,6.609333,-2.875,0.002914713
58377.3669,11.75,37.75,9.997608,-2.5625,0.002888239
58377.3694,11.75,37.625,13.94147,-2.8125,0.002897583
58377.3719,11.5625,37.625,17.94403,-3.0,0.002916271
58377.3744,11.625,37.5,21.57214,-2.6875,0.002910041
58377.3769,11.5,37.5,24.62761,-2.875,0.002888239
58377.3794,11.75,37.4375,27.1933,-2.9375,0.002878895
58377.3819,11.625,37.3125,29.54593,-2.875,0.002883567
58377.3844,11.5625,37.375,31.99308,-2.6875,0.002896026
58377.3869,11.625,37.4375,34.72178,-2.3125,0.00289914
58377.3894,11.6875,37.1875,37.72819,-2.3125,0.002869552
58377.3919,11.5625,37.375,40.85038,-2.0625,0.002869552
58377.3944,11.6875,37.0625,43.87085,-2.0625,0.002875781
58377.3969,11.5,37.0,46.62405,-2.3125,0.002875781
58377.3994,11.5625,37.125,49.05437,-2.0,0.002869552
58377.4019,11.5625,36.875,51.20265,-2.0625,0.002849307
58377.4044,11.5625,36.6875,53.14367,-1.125,0.00285865
58377.4069,11.4375,36.625,54.92192,-1.75,0.002867994
58377.4094,11.5625,36.75,56.52551,-1.9375,0.002861765
58377.4119,11.625,36.75,57.90987,-2.0625,0.002866437
58377.4144,11.5625,36.625,59.04873,-2.375,0.002849307
58377.4169,11.625,36.625,59.97521,-2.25,0.002847749
58377.4194,11.5,36.5,60.78299,-2.4375,0.002863322
58377.4219,11.5,36.5,61.5848,-2.4375,0.00285865
58377.4244,11.375,36.5,62.45411,-2.5,0.002846192
58377.4269,11.5,36.5625,63.38504,-2.9375,0.002833734
58377.4294,11.5,36.5625,64.29676,-3.125,0.002838406
58377.4319,11.4375,36.5,65.08032,-2.6875,0.002853979
58377.4344,11.375,36.625,65.66106,-2.3125,0.002844635
58377.4369,11.4375,36.6875,66.04107,-1.875,0.002830619
58377.4394,11.5,36.5625,66.29785,-2.375,0.002816603
58377.4419,11.4375,36.625,66.54148,-2.75,0.002833734
58377.4444,11.375,36.6875,66.85648,-2.5,0.00284152
58377.4469,11.5625,37.0,67.26191,-2.5,0.002829062
58377.4494,11.5,37.0,67.71159,-2.5,0.002810374
58377.4519,11.4375,37.375,68.13084,-2.4375,0.002794801
58377.4544,11.5625,37.8125,68.46535,-2.625,0.00282439
58377.4569,11.6875,38.1875,68.7116,-2.8125,0.002838406
58377.4594,11.5625,38.625,68.91166,-2.8125,0.002808817
58377.4619,11.625,39.25,69.11835,-2.3125,0.002794801
58377.4644,11.5625,39.75,69.35573,-2.6875,0.002794801
58377.4669,11.5,40.5,69.60181,-2.4375,0.002815046
58377.4694,11.5,40.9375,69.80544,-2.1875,0.002811931
58377.4719,11.6875,41.6875,69.92603,-2.125,0.002788572
58377.4744,11.75,42.1875,69.96911,-2.1875,0.002772999
58377.4769,11.75,42.75,69.9905,-2.25,0.002768327
58377.4794,11.75,43.375,70.06425,-2.9375,0.002782343
58377.4819,11.6875,43.875,70.23174,-3.0625,0.002771442
58377.4844,11.75,44.5625,70.46507,-2.9375,0.002762098
58377.4869,11.75,44.8125,70.67033,-3.0625,0.002769884
58377.4894,11.5625,45.5625,70.7374,-1.875,0.0027839
58377.4919,11.6875,46.0625,70.60889,-2.0625,0.002822833
58377.4944,11.8125,46.6875,70.32602,-2.4375,0.002838406
58377.4969,11.6875,47.25,70.02013,-2.0,0.002844635
58377.4994,11.75,48.125,69.8471,-2.0,0.002877338
58377.5019,11.8125,48.75,69.89802,-1.75,0.002920942
58377.5044,11.6875,49.4375,70.13869,-1.6875,0.002952089
58377.5069,11.75,50.25,70.41531,-1.25,0.00295676
58377.5094,11.625,50.875,70.53013,-1.375,0.002959875
58377.5119,11.6875,51.75,70.35004,-2.0625,0.002964547
58377.5144,11.8125,52.5625,69.88512,-2.0625,0.002995693
58377.5169,11.6875,53.125,69.28786,-2.125,0.002991021
58377.5194,11.625,53.875,68.76863,-1.6875,0.002961432
58377.5219,11.875,54.75,68.47114,-1.9375,0.00295676
58377.5244,11.75,55.375,68.38002,-1.25,0.002973891
58377.5269,11.5625,56.1875,68.31896,-1.5625,0.002973891
58377.5294,11.8125,56.9375,68.04688,-2.375,0.00295676
58377.5319,11.8125,57.4375,67.40044,-2.4375,0.002931844
58377.5344,11.6875,58.0,66.40009,-2.4375,0.00293963
58377.5369,11.6875,58.8125,65.25058,-1.9375,0.002961432
58377.5394,11.6875,59.3125,64.2253,-2.25,0.002972333
58377.5419,11.75,60.0,63.49266,-2.3125,0.002955203
58377.5444,11.6875,60.5625,62.98466,-2.375,0.002945859
58377.5469,11.875,61.125,62.39124,-2.375,0.002945859
58377.5494,11.75,61.6875,61.29725,-2.5,0.002966104
58377.5519,11.8125,62.375,59.39603,-2.4375,0.002970776
58377.5544,11.8125,62.625,56.66248,-2.4375,0.002959875
58377.5569,11.75,63.125,53.38196,-2.4375,0.00295676
58377.5594,11.875,63.5625,50.00705,-2.75,0.002969219
58377.5619,11.8125,63.9375,46.91261,-2.75,0.002986349
58377.5644,11.75,64.375,44.18389,-2.0625,0.002986349
58377.5669,11.8125,64.6875,41.56556,-2.25,0.002977005
58377.5694,11.875,64.9375,38.61673,-2.3125,0.002964547
58377.5719,11.875,65.125,35.00167,-2.6875,0.002989464
58377.5744,11.75,65.4375,30.76165,-2.625,0.003009709
58377.5769,11.9375,65.6875,26.40961,-2.5,0.003009709
58377.5794,11.8125,66.0,22.77347,-2.0625,0.002992578
58377.5819,11.875,66.0625,20.64651,-2.0625,0.002991021
58377.5844,11.75,66.375,20.41074,-2.1875,0.003011266
58377.5869,11.875,66.1875,21.82402,-2.0,0.003025282
58377.5894,11.9375,66.375,24.08659,-2.25,0.003023724
58377.5919,11.9375,66.5,26.16286,-2.6875,0.003015938
58377.5944,11.9375,66.4375,27.20641,-2.375,0.003025282
58377.5969,11.8125,66.4375,26.88368,-2.5625,0.003045527
58377.5994,11.875,66.3125,25.44735,-2.4375,0.003039297
58377.6019,11.875,66.1875,23.53894,-2.5,0.003017495
58377.6044,11.9375,66.125,21.83714,-2.875,0.003019052
58377.6069,12.0625,66.125,20.73734,-2.625,0.00303774
58377.6094,11.9375,66.1875,20.21725,-2.5,0.003059542
58377.6119,11.875,65.75,19.9343,-2.625,0.003042412
58377.6144,11.625,65.625,19.4739,-2.3125,0.003036183
58377.6169,11.8125,65.375,18.59611,-2.1875,0.003028396
58377.6194,11.875,64.875,17.34551,-2.375,0.003051756
58377.6219,11.875,64.5625,15.97962,-2.125,0.00307823
58377.6244,11.75,64.1875,14.78057,-2.1875,0.003067329
58377.6269,11.8125,63.875,13.87683,-1.875,0.003053313
58377.6294,11.8125,63.5,13.18459,-2.125,0.003057985
58377.6319,11.8125,63.0625,12.49642,-1.9375,0.003076673
58377.6344,11.8125,62.625,11.64917,-1.8125,0.003086016
58377.6369,11.8125,62.0625,10.65579,-1.9375,0.003079787
58377.6394,11.625,61.5625,9.710932,-2.0625,0.003068886
58377.6419,11.8125,61.0,9.064572,-2.25,0.00307823
58377.6444,11.875,60.5,8.844515,-1.875,0.003098475
58377.6469,11.8125,59.875,8.945032,-2.125,0.003087574
58377.6494,11.8125,59.5,9.061269,-2.125,0.003067329
58377.6519,11.9375,58.9375,8.858624,-2.4375,0.003068886
58377.6544,11.8125,58.3125,8.178956,-2.375,0.003087574
58377.6569,11.6875,57.9375,7.155517,-2.1875,0.003101589
58377.6594,12.0,57.625,6.15687,-2.25,0.003086016
58377.6619,11.8125,57.375,5.580543,-2.375,0.003068886
58377.6644,11.875,56.9375,5.610646,-2.0625,0.003070443
58377.6669,11.9375,56.5,6.084072,-2.25,0.003092246
58377.6694,11.8125,56.1875,6.553764,-2.25,0.003096917
58377.6719,11.8125,55.875,6.527281,-1.9375,0.003087574
58377.6744,11.9375,55.4375,5.754354,-2.0625,0.003075115
58377.6769,11.875,55.0625,4.400442,-2.0,0.003087574
58377.6794,11.75,54.5,2.999325,-2.75,0.003117162
58377.6819,11.625,54.25,2.19701,-2.1875,0.003101589
58377.6844,12.0,53.75,2.416203,-2.0,0.003092246
58377.6869,11.875,53.4375,3.619272,-2.5,0.003093803
58377.6894,11.9375,53.0625,5.301119,-2.9375,0.003106261
58377.6919,11.875,52.75,6.722698,-2.875,0.003131178
58377.6944,11.75,52.0625,7.268054,-2.75,0.003120277
58377.6969,11.75,52.0,6.742117,-2.875,0.003086016
58377.6994,11.875,51.625,5.457203,-2.25,0.003098475
58377.7019,11.875,51.1875,4.066267,-2.4375,0.003121834
58377.7044,11.875,51.0,3.231874,-2.125,0.00313585
58377.7069,11.8125,50.625,3.302559,-1.8125,0.003129621
58377.7094,11.75,50.3125,4.158704,-2.25,0.003109376
58377.7119,11.6875,50.0625,5.296899,-2.3125,0.003117162
58377.7144,11.875,49.75,6.098397,-2.375,0.003137407
58377.7169,11.8125,49.4375,6.136607,-2.125,0.003145194
58377.7194,11.875,49.25,5.367712,-2.3125,0.003132735
58377.7219,11.8125,48.9375,4.117821,-2.0625,0.003128063
58377.7244,11.6875,48.6875,2.888941,-2.25,0.003143636
58377.7269,11.75,48.3125,2.095778,-1.875,0.003163881
58377.7294,11.8125,48.3125,1.87131,-2.125,0.003162324
58377.7319,11.8125,47.9375,2.032068,-2.3125,0.003156095
58377.7344,11.5625,47.625,2.205557,-2.0,0.003156095
58377.7369,11.9375,47.625,2.039774,-2.1875,0.003166996
58377.7394,11.875,47.375,1.381432,-2.1875,0.003190355
58377.7419,11.8125,47.125,0.3367524,-2.0625,0.003184126
58377.7444,11.6875,46.875,-0.8031672,-2.3125,0.003157652
58377.7469,11.5625,46.6875,-1.720432,-2.4375,0.003159209
58377.7494,11.6875,46.625,-2.223852,-2.625,0.003160767
58377.7519,11.8125,46.3125,-2.322738,-2.3125,0.003151423
58377.7544,11.6875,46.125,-2.194934,-2.125,0.003154538
58377.7569,11.5625,45.9375,-2.078813,-2.5,0.003154538
58377.7594,11.75,45.75,-2.152519,-2.3125,0.003166996
58377.7619,11.75,45.5,-2.46074,-2.25,0.003199699
58377.7644,11.6875,45.375,-2.916983,-2.1875,0.003223059
58377.7669,11.5625,45.25,-3.367736,-2.4375,0.00323396
58377.7694,11.625,45.1875,-3.677214,-2.5625,0.003261991
58377.7719,11.625,44.9375,-3.788588,-2.375,0.003288465
58377.7744,11.5625,44.6875,-3.736741,-2.5625,0.003307153
58377.7769,11.5,44.5,-3.615009,-2.875,0.003310268
58377.7794,11.625,44.4375,-3.521788,-3.25,0.00330871
58377.7819,11.75,44.25,-3.516085,-3.1875,0.003325841
58377.7844,11.4375,44.0,-3.599808,-3.25,0.003339856
58377.7869,11.6875,43.8125,-3.729639,-2.6875,0.003325841
58377.7894,11.6875,43.625,-3.84493,-2.75,0.00331494
58377.7919,11.5625,43.5,-3.896037,-3.0,0.003294695
58377.7944,11.625,43.5,-3.862155,-3.0,0.003318054
58377.7969,11.5625,43.3125,-3.754237,-2.625,0.00337256
58377.7994,11.5625,43.25,-3.606438,-2.125,0.00344731
58377.8019,11.4375,43.0625,-3.460567,-2.1875,0.003570337
58377.8044,11.5,42.875,-3.351214,-2.625,0.003707379
58377.8069,11.5,42.625,-3.294283,-2.3125,0.003842864
58377.8094,11.4375,42.625,-3.282603,-2.0625,0.004028183
58377.8119,11.5625,42.5625,-3.290487,-2.4375,0.00413408
58377.8144,11.375,42.25,-3.285164,-2.0625,0.004154324
58377.8169,11.625,42.375,-3.243043,-1.8125,0.004182356
58377.8194,11.5,42.1875,-3.162712,-2.0625,0.00415121
58377.8219,11.3125,42.0,-3.068249,-1.6875,0.004001709
58377.8244,11.6875,41.875,-2.998519,-2.3125,0.003783687
58377.8269,11.5,41.6875,-2.985583,-2.0625,0.003575009
58377.8294,11.5625,41.75,-3.033243,-2.0625,0.003375674
58377.8319,11.5,41.5,-3.105435,-2.375,0.00325109
58377.8344,11.375,41.4375,-3.136161,-2.1875,0.003218387
58377.8369,11.6875,41.375,-3.060371,-2.375,0.003195027
58377.8394,11.375,41.1875,-2.85188,-1.875,0.003160767
58377.8419,11.5625,41.1875,-2.548593,-1.375,0.003123392
58377.8444,11.5,41.125,-2.246989,-1.8125,0.003137407
58377.8469,11.5,41.0,-2.063469,-1.8125,0.003131178
58377.8494,11.5,41.0625,-2.077049,-1.875,0.003110933
58377.8519,11.4375,40.875,-2.280878,-2.0,0.003123392
58377.8544,11.5625,40.6875,-2.571782,-2.1875,0.003123392
58377.8569,11.6875,40.75,-2.79086,-2.4375,0.003134293
58377.8594,11.5625,40.5625,-2.802965,-2.25,0.003132735
58377.8619,11.5,40.625,-2.58294,-2.0625,0.003115605
58377.8644,11.625,40.375,-2.263115,-2.3125,0.003109376
58377.8669,11.5625,40.375,-2.110613,-1.75,0.003110933
58377.8694,11.4375,40.375,-2.432074,-2.1875,0.003131178
58377.8719,11.4375,40.125,-3.437429,-2.0625,0.003124949
58377.8744,11.5625,40.125,-5.117835,-2.0,0.003114048
58377.8769,11.6875,40.125,-7.198281,-2.3125,0.003120277
58377.8794,11.625,39.9375,-9.194896,-2.1875,0.00311872
58377.8819,11.5,40.0625,-10.56505,-2.0625,0.003129621
58377.8844,11.5,39.8125,-10.89872,-2.3125,0.003134293
58377.8869,11.4375,39.625,-10.07565,-1.9375,0.003123392
58377.8894,11.5625,39.8125,-8.322478,-2.3125,0.003126506
58377.8919,11.625,39.625,-6.142272,-2.3125,0.003137407
58377.8944,11.625,39.5,-4.13658,-1.9375,0.003140522
58377.8969,11.6875,39.625,-2.788007,-1.875,0.003121834
58377.8994,11.5,39.4375,-2.288771,-1.875,0.003114048
58377.9019,11.5625,39.3125,-2.480263,-2.1875,0.003121834
58377.9044,11.4375,39.25,-2.924668,-2.25,0.003138965
58377.9069,11.625,39.3125,-3.078077,-2.5,0.00313585
58377.9094,11.3125,39.25,-2.4931,-2.0625,0.003110933
58377.9119,11.4375,39.125,-0.9710388,-2.4375,0.003096917
58377.9144,11.625,39.0625,1.391539,-2.3125,0.003101589
58377.9169,11.6875,38.9375,4.270475,-2.4375,0.003128063
58377.9194,11.4375,38.75,7.257816,-2.0625,0.00311872
58377.9219,11.4375,38.75,10.01566,-1.625,0.003089131
58377.9244,11.5,38.875,12.37678,-1.5,0.003093803
58377.9269,11.5625,38.8125,14.3588,-1.25,0.003115605
58377.9294,11.4375,38.5625,16.10028,-1.5625,0.003110933
58377.9319,11.5,38.4375,17.76004,-1.9375,0.003089131
58377.9344,11.5625,38.3125,19.4325,-1.8125,0.003067329
58377.9369,11.5,38.3125,21.11669,-1.625,0.003075115
58377.9394,11.375,38.125,22.74459,-2.1875,0.003098475
58377.9419,11.5625,38.3125,24.24416,-1.8125,0.00309536
58377.9444,11.625,38.125,25.59655,-1.5625,0.003076673
58377.9469,11.375,38.0,26.85522,-1.375,0.003056428
58377.9494,11.5625,37.9375,28.11781,-2.1875,0.003064214
58377.9519,11.4375,37.875,29.46923,-2.125,0.003073558
58377.9544,11.375,37.75,30.92949,-2.125,0.003067329
58377.9569,11.5625,37.8125,32.43618,-2.1875,0.003039297
58377.9594,11.5625,37.625,33.87178,-2.5,0.003031511
58377.9619,11.4375,37.625,35.12072,-2.25,0.003031511
58377.9644,11.5,37.6875,36.12544,-2.125,0.003040855
58377.9669,11.5,37.625,36.91152,-2.1875,0.003039297
58377.9694,11.375,37.5625,37.56911,-1.9375,0.00302061
58377.9719,11.375,37.75,38.20198,-2.1875,0.003014381
58377.9744,11.5,37.625,38.87255,-2.375,0.003017495
58377.9769,11.5,37.5625,39.57232,-2.5,0.003003479
58377.9794,11.5625,37.6875,40.23272,-2.75,0.002994136
58377.9819,11.4375,37.5625,40.7687,-2.5,0.002970776
58377.9844,11.5,37.625,41.13044,-2.0625,0.002959875
58377.9869,11.625,37.75,41.33442,-1.9375,0.002967662
58377.9894,11.5625,37.625,41.45847,-2.4375,0.002958318
58377.9919,11.625,37.75,41.60526,-2.5,0.002933401
58377.9944,11.5625,37.875,41.85472,-2.1875,0.002908484
58377.9969,11.4375,37.8125,42.23298,-2.5,0.00289914
58377.9994,11.625,38.0625,42.71258,-2.4375,0.002903812
58378.0019,11.5,38.1875,43.24158,-2.25,0.002888239
58378.0044,11.625,38.625,43.78101,-2.0,0.002855536
58378.0069,11.75,38.8125,44.32952,-1.9375,0.002822833
58378.0094,11.625,39.1875,44.92115,-1.875,0.00282439
58378.0119,11.75,39.75,45.59816,-2.0,0.002808817
58378.0144,11.6875,40.0625,46.37849,-2.1875,0.002790129
58378.0169,11.5,40.75,47.2364,-2.125,0.002762098
58378.0194,11.75,41.125,48.10847,-1.9375,0.002754311
58378.0219,11.75,41.6875,48.92467,-2.0625,0.002779228
58378.0244,11.8125,42.25,49.64273,-1.625,0.0027839
58378.0269,11.8125,42.8125,50.26723,-1.8125,0.002779228
58378.0294,11.6875,43.0625,50.84199,-1.5625,0.00276677
58378.0319,11.6875,43.75,51.42122,-1.6875,0.002782343
58378.0344,11.8125,44.125,52.03487,-1.6875,0.002839963
58378.0369,11.625,44.5625,52.66789,-1.75,0.002863322
58378.0394,11.8125,45.375,53.26734,-1.6875,0.002889796
58378.0419,11.75,45.75,53.76917,-1.9375,0.0029225
58378.0444,11.8125,46.5,54.12796,-2.0625,0.002955203
58378.0469,11.8125,46.9375,54.33233,-1.625,0.003003479
58378.0494,11.6875,47.6875,54.39761,-2.3125,0.003029954
58378.0519,11.8125,48.3125,54.3437,-2.25,0.003028396
58378.0544,11.875,48.9375,54.17455,-2.25,0.003056428
58378.0569,12.0,49.625,53.87395,-2.0,0.003101589
58378.0594,11.875,50.1875,53.42037,-1.625,0.00311249
58378.0619,11.875,50.9375,52.80798,-2.0625,0.003090688
58378.0644,12.0,51.5,52.05573,-2.3125,0.003079787
58378.0669,11.9375,52.25,51.192,-2.25,0.003092246
58378.0694,12.0,53.0,50.21982,-2.125,0.003109376
58378.0719,12.1875,53.75,49.08331,-2.25,0.00311249
58378.0744,11.9375,54.25,47.66081,-2.5,0.003098475
58378.0769,12.125,55.125,45.79692,-1.6875,0.003090688
58378.0794,12.0625,55.6875,43.36466,-2.0,0.003098475
58378.0819,12.0625,56.3125,40.32742,-2.625,0.003123392
58378.0844,12.0625,56.9375,36.76705,-2.1875,0.003114048
58378.0869,12.25,57.625,32.86103,-2.3125,0.003086016
58378.0894,12.0625,58.25,28.81853,-2.125,0.00309536
58378.0919,12.125,58.75,24.81263,-2.4375,0.00311249
58378.0944,12.125,59.25,20.94949,-2.0,0.003126506
58378.0969,12.25,59.875,17.29169,-2.3125,0.00311872
58378.0994,12.1875,60.3125,13.92186,-2.1875,0.003104704
58378.1019,12.1875,60.5625,11.00148,-2.25,0.00311249
58378.1044,12.375,61.25,8.776605,-2.125,0.003126506
58378.1069,12.4375,61.6875,7.508627,-2.4375,0.003134293
58378.1094,12.3125,61.875,7.352667,-2.3125,0.003126506
58378.1119,12.1875,62.25,8.243494,-2.0625,0.003106261
58378.1144,12.1875,62.5,9.856386,-2.4375,0.003106261
58378.1169,12.375,62.875,11.67868,-3.0,0.003121834
58378.1194,12.25,63.0625,13.17317,-2.75,0.003117162
58378.1219,12.25,63.375,13.96346,-2.3125,0.003103147
58378.1244,12.4375,63.5,13.9554,-2.6875,0.003106261
58378.1269,12.1875,63.4375,13.33619,-2.625,0.003104704
58378.1294,12.25,63.6875,12.45349,-2.375,0.00311249
58378.1319,12.3125,64.0,11.63718,-2.1875,0.003110933
58378.1344,12.1875,64.0625,11.05391,-2.375,0.003087574
58378.1369,12.125,64.0625,10.66414,-2.625,0.003090688
58378.1394,12.4375,64.0,10.29334,-2.875,0.003104704
58378.1419,12.3125,63.75,9.766966,-2.25,0.003107819
58378.1444,12.3125,63.875,9.026833,-1.9375,0.003087574
58378.1469,12.375,63.5625,8.162163,-2.125,0.003056428
58378.1494,12.3125,63.1875,7.342677,-2.0,0.003057985
58378.1519,12.375,63.1875,6.701118,-1.75,0.00307823
58378.1544,12.3125,62.875,6.242589,-2.1875,0.003082902
58378.1569,12.25,62.625,5.840431,-2.5,0.003067329
58378.1594,12.1875,62.125,5.323159,-2.6875,0.003050198
58378.1619,12.125,61.9375,4.598048,-2.875,0.003047084
58378.1644,12.3125,61.5625,3.730365,-2.375,0.003059542
58378.1669,12.4375,61.0625,2.921643,-2.25,0.003062657
58378.1694,12.1875,60.4375,2.391233,-2.6875,0.003034625
58378.1719,12.3125,60.0625,2.228877,-2.4375,0.003025282
58378.1744,12.25,59.5,2.310426,-2.4375,0.003040855
58378.1769,12.25,59.1875,2.338855,-1.9375,0.003047084
58378.1794,12.5,58.5625,2.000305,-2.0625,0.003029954
58378.1819,12.375,58.125,1.154035,-2.3125,0.003011266
58378.1844,12.4375,57.6875,-0.05426342,-2.6875,0.003006594
58378.1869,12.4375,57.1875,-1.231048,-2.6875,0.00302061
58378.1894,12.25,56.875,-1.920127,-2.8125,0.003029954
58378.1919,12.5625,56.6875,-1.842617,-2.875,0.003017495
58378.1944,12.3125,56.25,-1.063545,-2.625,0.00299725
58378.1969,12.375,55.9375,0.0123814,-2.8125,0.002989464
58378.1994,12.4375,55.75,0.8246061,-2.6875,0.002998808
58378.2019,12.1875,55.125,0.9309242,-2.875,0.003006594
58378.2044,12.25,54.9375,0.2313199,-2.6875,0.003003479
58378.2069,12.4375,54.4375,-0.9785323,-2.4375,0.002998808
58378.2094,12.4375,53.875,-2.154774,-2.4375,0.002989464
58378.2119,12.3125,53.625,-2.78026,-2.5,0.003001922
58378.2144,12.3125,53.25,-2.624084,-2.0625,0.003003479
58378.2169,12.3125,52.875,-1.851229,-2.1875,0.002998808
58378.2194,12.375,52.5,-0.929996,-2.0,0.002992578
58378.2219,12.4375,52.1875,-0.38679,-1.9375,0.003003479
58378.2244,12.5,52.0625,-0.5382482,-1.875,0.003022167
58378.2269,12.3125,51.375,-1.339381,-2.1875,0.003008151
58378.2294,12.125,50.9375,-2.420968,-2.5625,0.002994136
58378.2319,12.25,50.6875,-3.289428,-2.0625,0.002995693
58378.2344,12.3125,50.375,-3.578823,-2.125,0.003014381
58378.2369,12.3125,50.125,-3.224147,-2.0625,0.003023724
58378.2394,12.4375,49.8125,-2.473935,-2.25,0.003017495
58378.2419,12.3125,49.5625,-1.746374,-1.9375,0.003011266
58378.2444,12.5,49.25,-1.413229,-1.9375,0.003012823
58378.2469,12.3125,49.0,-1.626168,-1.9375,0.003028396
58378.2494,12.375,48.5625,-2.267023,-1.9375,0.003034625
58378.2519,12.5,48.4375,-3.035068,-1.75,0.003031511
58378.2544,12.4375,48.3125,-3.609499,-2.1875,0.003025282
58378.2569,12.375,47.875,-3.798557,-2.0,0.003031511
58378.2594,12.4375,47.625,-3.602577,-1.875,0.003064214
58378.2619,12.25,47.5,-3.173084,-1.5625,0.003073558
58378.2644,12.3125,47.3125,-2.706983,-1.8125,0.00305487
58378.2669,12.375,47.125,-2.342095,-2.3125,0.003050198
58378.2694,12.4375,47.0,-2.108377,-1.9375,0.003064214
58378.2719,12.25,46.5,-1.948827,-2.1875,0.00309536
58378.2744,12.1875,46.3125,-1.783409,-2.375,0.003096917
58378.2769,12.375,46.125,-1.569773,-2.375,0.003079787
58378.2794,12.4375,45.9375,-1.32216,-2.1875,0.003072001
58378.2819,12.4375,45.9375,-1.086749,-2.0625,0.003100032
58378.2844,12.4375,45.75,-0.8963246,-2.1875,0.003114048
58378.2869,12.25,45.5625,-0.7397362,-2.125,0.003107819
58378.2894,12.375,45.3125,-0.5678922,-2.0625,0.003100032
58378.2919,12.4375,45.125,-0.3308475,-2.1875,0.003101589
58378.2944,12.4375,44.875,-0.01991248,-1.8125,0.003115605
58378.2969,12.3125,44.8125,0.3151692,-1.5,0.003117162
58378.2994,12.375,44.5625,0.5866432,-1.9375,0.003098475
58378.3019,12.25,44.3125,0.7153206,-1.5,0.003093803
58378.3044,12.375,44.25,0.6752793,-2.0625,0.003104704
58378.3069,12.4375,44.0625,0.5098737,-2.3125,0.003117162
58378.3094,12.4375,43.9375,0.308914,-2.0625,0.00311249
58378.3119,12.4375,43.75,0.1607124,-2.3125,0.003081344
58378.3144,12.4375,43.5625,0.1070108,-2.1875,0.003076673
58378.3169,12.4375,43.4375,0.1261343,-2.25,0.003100032
58378.3194,12.5,43.25,0.1518398,-2.4375,0.003115605
58378.3219,12.25,43.25,0.1142771,-2.6875,0.003098475
58378.3244,12.5,42.9375,-0.02138415,-2.25,0.003075115
58378.3269,12.375,42.8125,-0.2393927,-1.9375,0.003084459
58378.3294,12.375,42.875,-0.4866889,-2.1875,0.003098475
58378.3319,12.25,42.6875,-0.7036391,-2.125,0.003087574
58378.3344,12.4375,42.5,-0.8531957,-2.3125,0.003082902
58378.3369,12.3125,42.4375,-0.9325958,-2.25,0.003076673
58378.3394,12.3125,42.3125,-0.9644939,-1.875,0.003090688
58378.3419,12.4375,42.125,-0.9772222,-2.125,0.003096917
58378.3444,12.3125,42.0,-0.9881901,-2.1875,0.003082902
58378.3469,12.625,42.0625,-0.9996465,-2.5,0.003050198
58378.3494,12.1875,41.875,-1.006469,-2.5,0.003036183
58378.3519,12.625,41.9375,-1.006997,-2.375,0.003051756
58378.3544,12.625,41.8125,-1.00741,-2.3125,0.003079787
58378.3569,12.625,41.6875,-1.016585,-2.3125,0.003073558
58378.3594,12.4375,41.4375,-1.036577,-2.125,0.00305487
58378.3619,12.375,41.5,-1.057684,-2.1875,0.003090688
58378.3644,12.3125,41.4375,-1.064006,-2.5625,0.003159209
58378.3669,12.4375,41.3125,-1.046665,-2.4375,0.003190355
58378.3694,12.5,41.125,-1.015098,-2.5625,0.00317634
58378.3719,12.5625,41.0625,-0.9966851,-2.3125,0.003156095
58378.3744,12.5,40.9375,-1.02203,-1.9375,0.003179454
58378.3769,12.375,40.75,-1.104092,-2.0625,0.003207486
58378.3794,12.5,40.8125,-1.225984,-2.9375,0.003199699
58378.3819,12.5625,40.625,-1.346337,-2.8125,0.003179454
58378.3844,12.625,40.75,-1.423121,-2.875,0.003145194
58378.3869,12.8125,40.5625,-1.441842,-2.9375,0.003138965
58378.3894,12.5625,40.5,-1.429832,-2.625,0.003140522
58378.3919,12.5625,40.5,-1.44388,-2.5625,0.003101589
58378.3944,12.9375,40.375,-1.536771,-2.0625,0.003051756
58378.3969,12.75,40.25,-1.721367,-2.4375,0.003026839
58378.3994,12.6875,40.25,-1.954467,-2.6875,0.003029954
58378.4019,12.5,40.0625,-2.155406,-2.5625,0.003043969
58378.4044,12.75,40.125,-2.250431,-2.4375,0.00303774
58378.4069,12.625,40.0625,-2.2182,-2.375,0.003009709
58378.4094,12.5625,40.0625,-2.110937,-2.6875,0.002998808
58378.4119,12.625,39.875,-2.03065,-2.3125,0.003009709
58378.4144,12.5625,39.75,-2.071691,-2.4375,0.003005037
58378.4169,12.8125,39.875,-2.259896,-2.4375,0.003005037
58378.4194,12.75,39.875,-2.526049,-2.5625,0.002978563
58378.4219,12.625,39.5625,-2.732528,-2.75,0.002981677
58378.4244,12.75,39.75,-2.743553,-2.8125,0.003017495
58378.4269,12.75,39.3125,-2.506543,-2.875,0.003014381
58378.4294,12.6875,39.4375,-2.096498,-2.75,0.002987906
58378.4319,12.75,39.3125,-1.695047,-2.25,0.00298012
58378.4344,12.75,39.25,-1.511026,-2.125,0.002995693
58378.4369,12.75,39.25,-1.679864,-2.5625,0.003012823
58378.4394,12.875,39.125,-2.194258,-2.6875,0.003009709
58378.4419,12.8125,39.25,-2.903321,-2.875,0.002994136
58378.4444,12.75,38.8125,-3.580704,-2.5625,0.002991021
58378.4469,12.6875,39.125,-4.028623,-2.5625,0.002987906
58378.4494,12.8125,39.125,-4.164563,-2.125,0.002948974
58378.4519,12.75,39.0625,-4.048336,-2.25,0.002927172
58378.4544,12.75,38.9375,-3.839424,-2.375,0.003003479
58378.4569,13.0625,38.875,-3.712164,-2.4375,0.003195027
58378.4594,12.9375,38.875,-3.77458,-2.125,0.003455097
58378.4619,12.9375,38.875,-4.029892,-2.125,0.003655988
58378.4644,12.9375,38.6875,-4.397125,-1.8125,0.003564108
58378.4669,12.8125,38.625,-4.769855,-2.0625,0.003040855
58378.4694,12.9375,38.5,-5.07471,-1.6875,0.002475555
58378.4719,13.125,38.625,-5.297369,-2.0625,0.002459982
58378.4744,12.8125,38.75,-5.469413,-2.1875,0.002556534
58378.4769,13.0,38.6875,-5.630179,-1.9375,0.002600139
58378.4794,13.0625,38.625,-5.795071,-2.0,0.002696691
58378.4819,13.0,38.625,-5.950676,-2.0625,0.002802588
58378.4844,12.9375,38.5625,-6.075219,-2.0625,0.002914713
58378.4869,13.0625,38.3125,-6.163831,-2.375,0.002984792
58378.4894,13.0,38.625,-6.232017,-2.625,0.002994136
58378.4919,13.125,38.4375,-6.290051,-2.625,0.003008151
58378.4944,12.9375,38.25,-6.305302,-2.3125,0.003029954
58378.4969,13.0,38.375,-6.186634,-1.9375,0.003051756
58378.4994,13.0,38.125,-5.818931,-1.8125,0.003053313
58378.5019,13.125,38.1875,-5.143495,-2.0,0.003043969
58378.5044,13.0625,38.125,-4.243397,-2.3125,0.003047084
58378.5069,13.0,38.1875,-3.375226,-2.375,0.003067329
58378.5094,13.1875,38.125,-2.904052,-2.375,0.003084459
58378.5119,13.0625,38.0,-3.147973,-2.5,0.003068886
58378.5144,13.125,38.0,-4.19518,-1.9375,0.00305487
58378.5169,13.1875,37.875,-5.787742,-2.0,0.003065771
58378.5194,13.0,37.875,-7.350363,-2.3125,0.003087574
58378.5219,13.1875,38.0625,-8.178099,-1.875,0.003103147
58378.5244,13.0625,37.8125,-7.716269,-1.9375,0.003082902
58378.5269,13.0625,38.0,-5.808634,-1.8125,0.003076673
58378.5294,13.25,38.0,-2.790955,-2.125,0.003087574
58378.5319,13.0625,37.625,0.6275427,-1.75,0.003100032
58378.5344,13.125,37.6875,3.653683,-1.75,0.003106261
58378.5369,13.0625,37.625,5.743798,-2.0625,0.003087574
58378.5394,13.125,37.625,6.827918,-2.0,0.003087574
58378.5419,13.25,37.5,7.319173,-1.6875,0.003106261
58378.5444,13.0625,37.5625,7.904711,-1.6875,0.00311249
58378.5469,13.25,37.5,9.217548,-2.1875,0.003100032
58378.5494,13.1875,37.5,11.54493,-2.3125,0.003084459
58378.5519,13.0625,37.4375,14.7076,-2.125,0.003082902
58378.5544,13.125,37.4375,18.15843,-2.5,0.003110933
58378.5569,13.1875,37.375,21.24298,-2.3125,0.003124949
58378.5594,13.125,37.375,23.48989,-2.625,0.003096917
58378.5619,13.125,37.375,24.7936,-2.1875,0.003075115
58378.5644,13.1875,37.375,25.41314,-2.3125,0.003089131
58378.5669,13.0625,37.25,25.80521,-2.6875,0.003114048
58378.5694,13.0625,37.3125,26.38851,-2.9375,0.003109376
58378.5719,13.1875,37.375,27.35971,-2.75,0.003096917
58378.5744,13.0625,37.125,28.6431,-2.6875,0.003092246
58378.5769,13.0625,37.1875,29.98084,-2.6875,0.003101589
58378.5794,13.25,37.1875,31.10066,-2.6875,0.003117162
58378.5819,13.1875,37.125,31.86503,-3.0,0.003121834
58378.5844,12.9375,37.0625,32.32849,-2.1875,0.003092246
58378.5869,13.1875,37.0625,32.68464,-2.6875,0.003086016
58378.5894,13.1875,36.9375,33.14522,-2.4375,0.003115605
58378.5919,13.1875,36.9375,33.82477,-2.1875,0.00311872
58378.5944,13.25,36.875,34.69221,-2.5625,0.003109376
58378.5969,13.25,36.8125,35.60746,-2.0625,0.003092246
58378.5994,13.1875,36.8125,36.41312,-2.125,0.003101589
58378.6019,13.25,36.875,37.02411,-1.75,0.003121834
58378.6044,13.125,36.8125,37.46606,-2.0625,0.00311872
58378.6069,13.1875,36.75,37.84707,-2.375,0.003110933
58378.6094,13.1875,37.0,38.28625,-2.1875,0.003103147
58378.6119,13.3125,37.0625,38.8441,-2.3125,0.003100032
58378.6144,13.125,36.875,39.49471,-1.8125,0.00311249
58378.6169,13.1875,37.125,40.15153,-2.25,0.003109376
58378.6194,13.1875,37.375,40.72672,-2.4375,0.003093803
58378.6219,13.25,37.5,41.18716,-2.6875,0.003092246
58378.6244,13.125,37.75,41.57452,-2.6875,0.003106261
58378.6269,13.3125,38.125,41.98008,-2.5,0.003106261
58378.6294,13.1875,38.625,42.49233,-2.0625,0.003087574
58378.6319,13.1875,39.125,43.14819,-2.3125,0.003065771
58378.6344,13.375,39.8125,43.9153,-2.5,0.003070443
58378.6369,13.25,40.5,44.71293,-2.1875,0.003093803
58378.6394,13.25,41.0625,45.45686,-1.9375,0.003092246
58378.6419,13.4375,42.0,46.09951,-2.875,0.00307823
58378.6444,13.3125,42.375,46.64543,-2.625,0.003053313
58378.6469,13.375,43.125,47.13567,-2.375,0.003043969
58378.6494,13.5625,43.8125,47.61465,-2.0,0.003065771
58378.6519,13.375,44.3125,48.10201,-2.3125,0.003056428
58378.6544,13.3125,45.0625,48.58699,-2.0625,0.003028396
58378.6569,13.375,45.625,49.04673,-1.9375,0.003022167
58378.6594,13.5625,46.0625,49.47416,-2.0625,0.003026839
58378.6619,13.375,46.6875,49.8959,-2.5,0.003036183
58378.6644,13.5,47.25,50.36581,-2.375,0.003019052
58378.6669,13.5,47.875,50.93371,-1.75,0.002994136
58378.6694,13.375,48.375,51.60902,-2.375,0.002991021
58378.6719,13.375,49.25,52.34156,-2.125,0.002998808
58378.6744,13.4375,49.875,53.03361,-1.9375,0.003012823
58378.6769,13.5,50.5,53.58057,-2.25,0.003000365
58378.6794,13.4375,51.375,53.91911,-1.9375,0.002992578
58378.6819,13.5625,52.125,54.05651,-2.0,0.003015938
58378.6844,13.5625,53.0625,54.06359,-1.8125,0.003053313
58378.6869,13.5,53.625,54.03387,-1.875,0.003068886
58378.6894,13.4375,54.5,54.0298,-1.875,0.003082902
58378.6919,13.5625,55.375,54.04551,-1.875,0.00311249
58378.6944,13.5,56.0625,54.00754,-2.1875,0.003140522
58378.6969,13.5,56.9375,53.81377,-2.0625,0.003171668
58378.6994,13.5,57.625,53.3906,-2.625,0.003179454
58378.7019,13.6875,58.375,52.73527,-2.3125,0.003170111
58378.7044,13.375,59.125,51.91894,-1.875,0.003177897
58378.7069,13.625,59.6875,51.04832,-2.0,0.003188798
58378.7094,13.4375,60.4375,50.20554,-2.4375,0.003204371
58378.7119,13.4375,61.0625,49.39965,-2.125,0.003185684
58378.7144,13.5625,61.625,48.5583,-2.1875,0.003163881
58378.7169,13.5,62.1875,47.56526,-2.0625,0.003166996
58378.7194,13.5625,62.5625,46.32388,-1.75,0.00317634
58378.7219,13.625,63.3125,44.81028,-2.1875,0.003191913
58378.7244,13.5,63.75,43.08443,-2.25,0.003177897
58378.7269,13.5625,64.375,41.24999,-2.1875,0.003137407
58378.7294,13.75,64.875,39.38486,-2.1875,0.003148308
58378.7319,13.5625,65.1875,37.48148,-2.0,0.003168553
58378.7344,13.625,65.75,35.43473,-1.9375,0.003165439
58378.7369,13.6875,66.0,33.08984,-2.1875,0.003156095
58378.7394,13.625,66.4375,30.32855,-2.0625,0.003142079
58378.7419,13.5,66.9375,27.15052,-2.0625,0.003146751
58378.7444,13.6875,67.125,23.70507,-2.75,0.003159209
58378.7469,13.625,67.4375,20.25084,-2.3125,0.003154538
58378.7494,13.625,67.75,17.06163,-2.0625,0.003140522
58378.7519,13.6875,67.875,14.3248,-2.5,0.003146751
58378.7544,13.6875,68.125,12.08481,-2.4375,0.003157652
58378.7569,13.6875,68.1875,10.26152,-2.1875,0.003160767
58378.7594,13.6875,68.5,8.732506,-2.0625,0.003156095
58378.7619,13.5,68.5,7.432972,-2.5,0.003142079
58378.7644,13.75,68.75,6.415167,-2.25,0.00313585
58378.7669,13.75,68.6875,5.829955,-1.875,0.00315298
58378.7694,13.625,68.8125,5.835493,-1.8125,0.003149866
58378.7719,13.625,68.6875,6.479494,-2.1875,0.003140522
58378.7744,13.8125,68.75,7.620533,-2.1875,0.003140522
58378.7769,13.75,68.75,8.937022,-2.0,0.003146751
58378.7794,13.75,68.6875,10.02927,-2.4375,0.003154538
58378.7819,13.75,68.5,10.57066,-2.1875,0.00315298
58378.7844,13.5625,68.4375,10.43648,-2.5625,0.003138965
58378.7869,13.4375,68.0625,9.746889,-2.375,0.003132735
58378.7894,13.75,68.0625,8.801552,-2.625,0.003142079
58378.7919,13.875,67.625,7.936668,-2.625,0.003166996
58378.7944,13.6875,67.5,7.373378,-2.375,0.003165439
58378.7969,13.5,67.1875,7.130171,-2.3125,0.003129621
58378.7994,13.6875,66.875,7.038457,-2.25,0.003126506
58378.8019,13.5625,66.5625,6.848936,-2.5,0.003145194
58378.8044,13.6875,66.125,6.371113,-2.5,0.003159209
58378.8069,13.625,65.5625,5.573555,-1.8125,0.003149866
58378.8094,13.5625,65.125,4.596435,-1.8125,0.003134293
58378.8119,13.625,64.875,3.674499,-2.5,0.003126506
58378.8144,13.5,64.1875,3.01451,-2.75,0.00315298
58378.8169,13.4375,63.6875,2.693392,-2.3125,0.003157652
58378.8194,13.5625,63.1875,2.628777,-1.9375,0.003134293
58378.8219,13.5,62.75,2.634154,-2.1875,0.003121834
58378.8244,13.5,62.25,2.52499,-2.25,0.003120277
58378.8269,13.5,61.6875,2.217172,-2.5,0.003134293
58378.8294,13.625,61.125,1.765302,-2.3125,0.003132735
58378.8319,13.5625,60.5,1.322298,-2.5625,0.003120277
58378.8344,13.5,59.75,1.046367,-2.375,0.00311872
58378.8369,13.5,59.1875,1.008719,-2.875,0.003124949
58378.8394,13.5625,58.875,1.154152,-2.4375,0.003140522
58378.8419,13.5,58.25,1.336049,-2.3125,0.003138965
58378.8444,13.375,57.6875,1.406196,-2.1875,0.00311872
58378.8469,13.4375,57.5,1.30826,-1.9375,0.00311249
58378.8494,13.5625,57.1875,1.119696,-2.0625,0.003117162
58378.8519,13.5,56.75,1.019737,-1.875,0.003137407
58378.8544,13.375,56.125,1.195762,-2.5625,0.003126506
58378.8569,13.5,55.9375,1.738172,-2.375,0.003103147
58378.8594,13.4375,55.625,2.581458,-2.75,0.003100032
58378.8619,13.375,55.25,3.526875,-3.125,0.003121834
58378.8644,13.375,54.75,4.336647,-3.0625,0.003126506
58378.8669,13.4375,54.4375,4.852461,-2.8125,0.003110933
58378.8694,13.4375,53.9375,5.07526,-2.8125,0.003101589
58378.8719,13.3125,53.5,5.165185,-2.625,0.003117162
58378.8744,13.4375,53.1875,5.359757,-2.5,0.003126506
58378.8769,13.4375,52.75,5.851086,-2.375,0.003123392
58378.8794,13.1875,52.4375,6.686394,-2.625,0.003107819
58378.8819,13.25,52.0625,7.742726,-2.625,0.003092246
58378.8844,13.5,51.75,8.788719,-2.3125,0.003101589
58378.8869,13.375,51.4375,9.601175,-2.6875,0.003138965
58378.8894,13.125,51.125,10.07356,-3.0,0.003131178
58378.8919,13.375,50.75,10.26065,-2.625,0.003100032
58378.8944,13.1875,50.5,10.33745,-2.8125,0.003104704
58378.8969,13.0625,50.125,10.49668,-3.125,0.00311249
58378.8994,13.1875,50.0,10.84082,-3.25,0.003128063
58378.9019,13.4375,49.75,11.32803,-2.8125,0.003126506
58378.9044,13.4375,49.25,11.80046,-2.875,0.003106261
58378.9069,13.1875,49.0625,12.07885,-2.1875,0.00311249
58378.9094,13.125,48.9375,12.07021,-2.3125,0.003137407
58378.9119,13.125,48.6875,11.82868,-2.375,0.003143636
58378.9144,13.1875,48.375,11.53474,-2.6875,0.003124949
58378.9169,13.25,48.0625,11.40246,-2.375,0.003115605
58378.9194,13.0,47.8125,11.56459,-2.5625,0.003121834
58378.9219,13.25,47.6875,11.99757,-2.3125,0.003145194
58378.9244,13.1875,47.375,12.52825,-1.9375,0.00315298
58378.9269,13.0625,47.25,12.91986,-2.375,0.003126506
58378.9294,13.3125,47.0,12.99256,-2.125,0.003115605
58378.9319,13.3125,46.8125,12.71448,-2.6875,0.003142079
58378.9344,13.0,46.5625,12.21568,-2.4375,0.003157652
58378.9369,13.125,46.375,11.71709,-2.625,0.003159209
58378.9394,13.1875,46.25,11.41336,-2.625,0.00313585
58378.9419,13.0625,46.0,11.37226,-2.625,0.003126506
58378.9444,13.0625,45.8125,11.50443,-2.75,0.003132735
58378.9469,13.125,45.625,11.61883,-2.875,0.003149866
58378.9494,13.1875,45.625,11.53254,-2.6875,0.003159209
58378.9519,13.125,45.3125,11.17449,-2.5625,0.003151423
58378.9544,13.0,45.25,10.6266,-2.0625,0.003179454
58378.9569,13.375,45.1875,10.07959,-2.0,0.003238632
58378.9594,13.1875,44.875,9.728443,-2.0625,0.003268221
58378.9619,13.0625,44.75,9.665093,-2.0625,0.003258877
58378.9644,13.1875,44.6875,9.827682,-2.3125,0.003240189
58378.9669,13.125,44.5,10.03424,-2.6875,0.003252647
58378.9694,12.8125,44.375,10.08349,-2.5,0.003285351
58378.9719,13.125,44.3125,9.868161,-2.375,0.003293137
58378.9744,12.9375,44.125,9.440024,-2.875,0.003283794
58378.9769,13.0625,43.8125,8.990727,-2.0625,0.003293137
58378.9794,13.0625,43.875,8.757372,-2.375,0.003280679
58378.9819,13.1875,43.6875,8.902533,-2.4375,0.003260434
58378.9844,12.9375,43.375,9.431897,-2.125,0.003232403
58378.9869,12.8125,43.3125,10.19168,-2.6875,0.003196585
58378.9894,13.0,43.25,10.94585,-3.0,0.003177897
58378.9919,12.9375,43.125,11.49067,-2.375,0.003177897
58378.9944,12.9375,42.9375,11.74602,-1.9375,0.00317634
58378.9969,13.0625,42.875,11.77767,-1.6875,0.003154538
58378.9994,13.0625,42.75,11.74365,-2.0625,0.003138965
58379.0019,12.75,42.5,11.79869,-2.125,0.003149866
58379.0044,12.8125,42.5,12.01209,-2.0,0.003160767
58379.0069,12.75,42.5,12.34291,-2.1875,0.003146751
58379.0094,12.6875,42.25,12.68156,-2.0,0.003123392
58379.0119,12.75,42.0625,12.9285,-2.3125,0.003121834
58379.0144,12.875,42.125,13.06052,-1.875,0.003138965
58379.0169,12.9375,42.0,13.14423,-2.1875,0.003149866
58379.0194,12.75,41.875,13.28964,-2.0,0.003132735
58379.0219,12.5625,41.6875,13.57284,-1.8125,0.003115605
58379.0244,12.75,41.6875,13.9762,-1.375,0.003126506
58379.0269,12.75,41.5625,14.38437,-1.9375,0.003142079
58379.0294,12.5625,41.5,14.64163,-2.25,0.003138965
58379.0319,12.625,41.3125,14.63895,-2.3125,0.003124949
58379.0344,12.625,41.375,14.37991,-2.4375,0.00311872
58379.0369,12.5625,41.125,13.98503,-2.3125,0.00311872
58379.0394,12.5,41.0625,13.62887,-1.5625,0.003138965
58379.0419,12.4375,41.0625,13.4434,-1.875,0.00313585
58379.0444,12.75,41.0,13.44243,-2.0625,0.003087574
58379.0469,12.625,40.875,13.51139,-2.3125,0.003057985
58379.0494,12.5625,40.75,13.4697,-2.4375,0.003106261
58379.0519,12.5,40.75,13.17335,-2.5625,0.003283794
58379.0544,12.5,40.6875,12.60127,-2.9375,0.003494029
58379.0569,12.4375,40.5,11.87813,-2.4375,0.003687134
58379.0594,12.5625,40.6875,11.21927,-1.6875,0.003641973
58379.0619,12.6875,40.4375,10.82849,-2.1875,0.00321683
58379.0644,12.4375,40.4375,10.80337,-1.8125,0.002646858
58379.0669,12.375,40.25,11.0972,-1.9375,0.002416377
58379.0694,12.625,40.5,11.55357,-1.6875,0.00251293
58379.0719,12.5,40.125,11.9896,-2.0,0.002617269
58379.0744,12.3125,40.1875,12.2787,-2.0625,0.002746525
58379.0769,12.5625,40.0625,12.3895,-2.0625,0.002896026
58379.0794,12.625,39.875,12.36833,-1.875,0.002978563
58379.0819,12.4375,39.875,12.28654,-1.6875,0.003047084
58379.0844,12.5,39.875,12.19355,-2.0625,0.003103147
58379.0869,12.5625,39.875,12.10777,-2.4375,0.003129621
58379.0894,12.3125,39.75,12.04654,-2.9375,0.003140522
58379.0919,12.375,39.625,12.06437,-2.1875,0.003134293
58379.0944,12.5625,39.625,12.25825,-2.3125,0.003138965
58379.0969,12.4375,39.375,12.71979,-2.0625,0.003138965
58379.0994,12.5,39.3125,13.45275,-2.1875,0.003149866
58379.1019,12.5625,39.3125,14.30598,-1.875,0.003154538
58379.1044,12.5625,39.25,14.97893,-2.3125,0.003131178
58379.1069,12.4375,39.125,15.12179,-2.0,0.003126506
58379.1094,12.5625,39.375,14.49918,-2.25,0.003142079
58379.1119,12.5,39.125,13.14003,-2.4375,0.003145194
58379.1144,12.375,39.0625,11.3889,-2.3125,0.003137407
58379.1169,12.4375,39.125,9.812861,-2.625,0.003114048
58379.1194,12.5,39.0,8.989839,-2.25,0.003114048
58379.1219,12.375,38.9375,9.268492,-2.5,0.003134293
58379.1244,12.5625,38.9375,10.61442,-2.75,0.003142079
58379.1269,12.4375,38.9375,12.62382,-2.75,0.003120277
58379.1294,12.5,38.875,14.70463,-2.5625,0.003087574
58379.1319,12.5625,38.75,16.3448,-2.4375,0.00309536
58379.1344,12.3125,38.6875,17.34312,-1.9375,0.003115605
58379.1369,12.5625,38.75,17.89239,-2.125,0.003117162
58379.1394,12.375,38.625,18.47774,-2.1875,0.003100032
58379.1419,12.4375,38.5,19.64211,-2.5,0.003081344
58379.1444,12.3125,38.4375,21.73372,-2.3125,0.003079787
58379.1469,12.375,38.5,24.75533,-2.0625,0.00309536
58379.1494,12.4375,38.25,28.38033,-1.9375,0.003087574
58379.1519,12.4375,38.4375,32.11702,-1.9375,0.003084459
58379.1544,12.3125,38.375,35.53218,-2.25,0.003079787
58379.1569,12.4375,38.1875,38.42298,-2.125,0.003081344
58379.1594,12.3125,38.1875,40.86084,-2.125,0.003086016
58379.1619,12.4375,38.1875,43.10053,-2.5,0.003082902
58379.1644,12.375,38.125,45.41482,-2.25,0.00305487
58379.1669,12.25,38.1875,47.94504,-2.0,0.0030611
58379.1694,12.25,37.9375,50.63981,-2.0,0.003073558
58379.1719,12.25,37.9375,53.3007,-1.875,0.003067329
58379.1744,12.375,38.0625,55.69888,-2.125,0.003065771
58379.1769,12.25,37.875,57.69341,-2.25,0.003043969
58379.1794,12.125,37.8125,59.29039,-2.3125,0.003043969
58379.1819,12.0625,37.5625,60.61955,-1.8125,0.003070443
58379.1844,12.125,37.5,61.85091,-2.3125,0.003065771
58379.1869,12.125,37.5625,63.1041,-1.5,0.003043969
58379.1894,12.1875,37.5,64.3997,-1.875,0.003042412
58379.1919,12.125,37.5,65.67246,-1.75,0.003050198
58379.1944,12.1875,37.1875,66.83113,-1.875,0.003062657
58379.1969,12.125,37.25,67.82372,-1.75,0.003057985
58379.1994,12.25,37.375,68.66953,-1.3125,0.003031511
58379.2019,12.125,37.125,69.44296,-2.1875,0.003023724
58379.2044,12.1875,37.1875,70.22346,-2.0625,0.003053313
58379.2069,12.1875,37.125,71.04451,-2.125,0.003067329
58379.2094,12.0625,37.1875,71.87218,-2.3125,0.003053313
58379.2119,11.875,37.1875,72.62472,-2.1875,0.003029954
58379.2144,12.125,37.375,73.21947,-2.3125,0.003019052
58379.2169,12.125,37.1875,73.61867,-2.0625,0.003043969
58379.2194,12.1875,37.25,73.84751,-2.1875,0.003050198
58379.2219,12.0,37.375,73.97588,-1.75,0.00303774
58379.2244,12.0625,37.5,74.0768,-1.9375,0.003017495
58379.2269,11.875,37.625,74.1869,-1.5625,0.003014381
58379.2294,12.0625,37.875,74.2921,-1.625,0.003029954
58379.2319,12.0,38.25,74.34579,-1.5,0.00302061
58379.2344,12.125,38.625,74.30527,-2.1875,0.003009709
58379.2369,12.0625,38.9375,74.16372,-2.1875,0.003006594
58379.2394,11.9375,39.5,73.95639,-2.5,0.003009709
58379.2419,12.0625,40.25,73.73891,-2.75,0.003012823
58379.2444,12.125,40.875,73.55048,-2.6875,0.00299725
58379.2469,12.1875,41.5,73.38625,-2.75,0.002969219
58379.2494,12.0625,42.0,73.19698,-2.4375,0.002958318
58379.2519,12.0625,42.75,72.91759,-2.5625,0.002973891
58379.2544,12.0625,43.25,72.50837,-2.5,0.002972333
58379.2569,12.0625,43.875,71.98279,-1.875,0.002941187
58379.2594,12.0625,44.5,71.40436,-2.0,0.002919385
58379.2619,12.0,45.0,70.85182,-2.5625,0.002903812
58379.2644,12.0625,45.5625,70.37251,-2.1875,0.002914713
58379.2669,12.0,46.25,69.95217,-2.375,0.002902255
58379.2694,12.0625,46.75,69.5207,-2.375,0.002885125
58379.2719,12.125,47.375,68.99146,-1.9375,0.002878895
58379.2744,11.9375,47.875,68.31319,-1.125,0.002889796
58379.2769,12.25,48.6875,67.50403,-2.0625,0.002930286
58379.2794,12.1875,49.4375,66.6459,-2.1875,0.002934958
58379.2819,12.0625,50.0,65.84135,-2.625,0.002919385
58379.2844,12.1875,50.9375,65.15756,-2.4375,0.002936516
58379.2869,12.125,51.8125,64.59236,-2.5625,0.002964547
58379.2894,12.1875,52.4375,64.0832,-2.625,0.002998808
58379.2919,12.125,53.3125,63.55521,-2.625,0.003008151
58379.2944,12.125,54.25,62.97785,-2.4375,0.003000365
58379.2969,12.1875,55.0,62.39368,-2.8125,0.003012823
58379.2994,12.25,55.75,61.8979,-2.375,0.003040855
58379.3019,12.125,56.375,61.57657,-2.3125,0.003064214
58379.3044,12.1875,57.25,61.43998,-2.4375,0.00305487
58379.3069,12.1875,58.125,61.39479,-2.8125,0.003045527
58379.3094,12.3125,58.6875,61.2791,-2.8125,0.003040855
58379.3119,12.0625,59.375,60.94679,-2.5,0.003048641
58379.3144,12.25,60.0625,60.35481,-2.9375,0.003056428
58379.3169,12.25,60.6875,59.59806,-3.25,0.00303774
58379.3194,12.125,61.1875,58.86236,-2.9375,0.003025282
58379.3219,12.125,61.875,58.31231,-3.0,0.003039297
58379.3244,12.0625,62.375,57.9738,-3.1875,0.003045527
58379.3269,12.3125,63.0,57.68158,-3.1875,0.003031511
58379.3294,12.125,63.3125,57.13247,-2.6875,0.003014381
58379.3319,12.3125,63.9375,56.02671,-3.1875,0.003025282
58379.3344,12.1875,64.375,54.22599,-2.9375,0.00303774
58379.3369,12.0625,64.6875,51.83881,-2.375,0.003048641
58379.3394,12.25,65.25,49.17616,-2.5,0.003034625
58379.3419,12.1875,65.375,46.59005,-2.4375,0.003011266
58379.3444,12.0625,65.75,44.27699,-2.75,0.00302061
58379.3469,12.125,66.1875,42.15756,-2.1875,0.003040855
58379.3494,12.25,66.375,39.91212,-2.5625,0.003040855
58379.3519,12.125,66.625,37.17105,-2.4375,0.003026839
58379.3544,12.1875,67.0,33.77039,-2.25,0.003015938
58379.3569,12.1875,67.0625,29.93612,-2.8125,0.00302061
58379.3594,12.1875,67.3125,26.28411,-2.9375,0.003040855
58379.3619,12.125,67.3125,23.61073,-3.0625,0.003045527
58379.3644,12.1875,67.4375,22.55779,-2.6875,0.003022167
58379.3669,12.1875,67.5625,23.30747,-2.375,0.003019052
58379.3694,12.3125,67.6875,25.4596,-2.75,0.003028396
58379.3719,12.3125,67.6875,28.16063,-2.6875,0.003045527
58379.3744,12.3125,67.75,30.43321,-2.0625,0.003040855
58379.3769,12.25,67.75,31.55684,-2.75,0.003014381
58379.3794,12.1875,67.4375,31.32516,-2.75,0.003012823
58379.3819,12.1875,67.625,30.06663,-2.1875,0.003029954
58379.3844,12.3125,67.5,28.43231,-2.125,0.003036183
58379.3869,12.25,67.1875,27.06548,-2.6875,0.003033068
58379.3894,12.25,67.125,26.31814,-2.6875,0.003012823
58379.3919,12.4375,67.0,26.14477,-3.0,0.003011266
58379.3944,12.1875,66.5625,26.20597,-2.8125,0.003029954
58379.3969,12.3125,66.375,26.1063,-2.8125,0.003015938
58379.3994,12.375,66.0625,25.62823,-3.0625,0.003003479
58379.4019,12.125,65.625,24.83891,-3.0625,0.003019052
58379.4044,12.3125,65.375,24.02427,-2.625,0.003025282
58379.4069,12.25,64.8125,23.50326,-2.9375,0.00303774
58379.4094,12.1875,64.25,23.43616,-2.75,0.003017495
58379.4119,12.0625,63.8125,23.73632,-2.8125,0.003009709
58379.4144,12.1875,63.5,24.13075,-2.875,0.003022167
58379.4169,12.1875,62.9375,24.32796,-2.9375,0.00302061
58379.4194,12.25,62.5,24.19,-2.6875,0.00303774
58379.4219,12.1875,61.9375,23.80935,-2.4375,0.003026839
58379.4244,12.0625,61.25,23.448,-2.5,0.003009709
58379.4269,12.0,60.625,23.37658,-2.5,0.003003479
58379.4294,12.1875,60.125,23.70826,-2.6875,0.003026839
58379.4319,12.1875,59.5,24.32392,-2.8125,0.003036183
58379.4344,12.0,59.0,24.93143,-3.0,0.003034625
58379.4369,12.125,58.5,25.22557,-3.25,0.003019052
58379.4394,12.0625,57.9375,25.05774,-2.8125,0.003025282
58379.4419,12.0,57.5,24.51962,-3.1875,0.003053313
58379.4444,12.25,57.25,23.89391,-2.75,0.003051756
58379.4469,12.1875,57.0625,23.50073,-2.8125,0.003040855
58379.4494,12.1875,56.5,23.52527,-2.5625,0.003034625
58379.4519,12.0625,56.1875,23.92205,-2.25,0.003039297
58379.4544,12.0,55.8125,24.44846,-3.25,0.003062657
58379.4569,12.125,55.4375,24.80754,-3.125,0.003062657
58379.4594,12.125,54.9375,24.81967,-3.0625,0.003053313
58379.4619,12.0,54.625,24.52825,-2.9375,0.003050198
58379.4644,12.0625,54.125,24.18118,-3.375,0.00305487
58379.4669,12.125,53.9375,24.09774,-3.0625,0.003079787
58379.4694,12.125,53.375,24.49376,-3.4375,0.003072001
58379.4719,12.0,53.0,25.35949,-3.6875,0.003056428
58379.4744,12.0,52.5625,26.45421,-3.875,0.003062657
58379.4769,12.0,52.375,27.42034,-3.3125,0.003076673
58379.4794,12.0,52.0,27.95636,-3.25,0.003073558
58379.4819,12.0,51.5625,27.95778,-2.375,0.003064214
58379.4844,12.0625,51.25,27.5562,-2.375,0.003064214
58379.4869,11.9375,50.9375,27.04064,-2.875,0.003072001
58379.4894,12.0625,50.8125,26.70753,-3.1875,0.00309536
58379.4919,11.8125,50.375,26.71782,-3.5625,0.003089131
58379.4944,12.0,50.125,27.03268,-3.6875,0.003065771
58379.4969,12.1875,50.0,27.45326,-3.3125,0.003067329
58379.4994,11.9375,49.5625,27.73558,-3.0,0.003082902
58379.5019,11.875,49.25,27.71558,-3.3125,0.003101589
58379.5044,12.0625,49.125,27.3803,-3.3125,0.003093803
58379.5069,11.9375,48.75,26.85485,-3.4375,0.003070443
58379.5094,11.9375,48.75,26.32188,-3.125,0.003075115
58379.5119,12.125,48.4375,25.923,-3.1875,0.003089131
58379.5144,11.8125,48.125,25.69505,-3.0,0.00311249
58379.5169,11.8125,48.0,25.57021,-3.3125,0.003096917
58379.5194,12.0,47.75,25.43067,-3.375,0.003079787
58379.5219,11.875,47.5625,25.18158,-3.375,0.003092246
58379.5244,11.8125,47.4375,24.79981,-3.9375,0.003106261
58379.5269,12.0,47.0625,24.33527,-3.75,0.00309536
58379.5294,11.75,46.875,23.87118,-3.9375,0.003075115
58379.5319,11.8125,46.8125,23.47161,-3.5,0.003068886
58379.5344,11.9375,46.6875,23.14815,-3.5625,0.003086016
58379.5369,11.875,46.375,22.86218,-3.4375,0.003124949
58379.5394,11.875,46.25,22.5562,-2.875,0.003146751
58379.5419,12.0625,46.0625,22.19154,-3.1875,0.003157652
58379.5444,11.875,45.625,21.76917,-2.8125,0.003177897
58379.5469,11.875,45.6875,21.324,-3.0,0.00323396
58379.5494,12.0625,45.3125,20.90044,-3.1875,0.00325109
58379.5519,11.75,45.25,20.52767,-3.25,0.003215272
58379.5544,11.875,45.1875,20.21046,-3.6875,0.003198142
58379.5569,12.0,44.9375,19.93894,-3.5,0.003224616
58379.5594,11.9375,44.6875,19.70674,-2.9375,0.00325109
58379.5619,12.0,44.625,19.52079,-2.875,0.003269778
58379.5644,11.9375,44.5,19.39429,-3.0625,0.003243304
58379.5669,11.8125,44.375,19.32785,-2.875,0.003201257
58379.5694,12.0,44.25,19.29457,-3.375,0.003182569
58379.5719,11.9375,44.125,19.24487,-3.4375,0.003174782
58379.5744,11.9375,43.9375,19.13268,-3.25,0.003146751
58379.5769,12.0,43.75,18.94942,-3.4375,0.003104704
58379.5794,12.0,43.5625,18.74402,-3.375,0.003087574
