Time (s),Venous (mmHg),FAP (mmHg),Arterial - Pigtail (mmHg),Swan (mmHg),EKG (mV)
58906.1144,10.875,58.625,0.5001069,-2.5625,0.003380346
58906.1169,10.875,58.5,-1.185821,-2.8125,0.003456654
58906.1194,10.9375,58.3125,-3.163406,-2.6875,0.003204371
58906.1219,11.0,58.25,-4.694734,-3.125,0.003849094
58906.1244,10.6875,58.125,-5.173484,-3.1875,0.002517602
58906.1269,10.9375,57.9375,-4.407475,-3.125,-0.002914262
58906.1294,10.8125,58.125,-2.705446,-2.8125,-0.003060649
58906.1319,10.875,57.8125,-0.7229542,-2.6875,-0.003239738
58906.1344,10.9375,57.8125,0.8567356,-2.75,-0.002227493
58906.1369,10.9375,57.6875,1.648327,-3.125,0.002886682
58906.1394,10.625,57.75,1.737029,-2.9375,0.003316497
58906.1419,10.8125,57.625,1.618409,-2.9375,0.002934958
58906.1444,10.75,57.4375,1.945034,-2.75,0.003157652
58906.1469,10.9375,57.5625,3.216459,-2.75,0.003124949
58906.1494,10.8125,57.375,5.569801,-3.125,0.003138965
58906.1519,11.0,57.125,8.768859,-2.9375,0.003173225
58906.1544,10.8125,57.1875,12.38037,-2.4375,0.003191913
58906.1569,10.8125,57.0625,16.02865,-2.625,0.003198142
58906.1594,10.8125,56.875,19.5837,-2.3125,0.003201257
58906.1619,11.0,56.8125,23.18312,-2.625,0.003218387
58906.1644,10.9375,56.75,27.08583,-2.25,0.003257319
58906.1669,10.9375,56.625,31.4501,-1.8125,0.003261991
58906.1694,10.8125,56.3125,36.16964,-1.5625,0.00325109
58906.1719,10.9375,56.375,40.86461,-1.875,0.003249533
58906.1744,10.625,56.125,45.03612,-1.8125,0.003269778
58906.1769,10.875,55.9375,48.29956,-1.6875,0.003296252
58906.1794,10.9375,55.875,50.56716,-2.3125,0.003296252
58906.1819,10.8125,55.8125,52.0791,-2.125,0.003282236
58906.1844,10.6875,55.4375,53.26691,-2.3125,0.003280679
58906.1869,10.8125,55.5,54.52499,-2.125,0.00329158
58906.1894,10.4375,55.3125,56.013,-2.1875,0.003316497
58906.1919,10.6875,55.3125,57.59565,-2.5,0.003316497
58906.1944,10.625,55.125,58.94608,-2.375,0.003294695
58906.1969,10.5,55.125,59.75168,-2.1875,0.003290023
58906.1994,10.625,55.0625,59.909,-2.125,0.00330871
58906.2019,10.5,55.125,59.60175,-2.3125,0.003335184
58906.2044,10.5625,55.0625,59.22224,-2.75,0.003324283
58906.2069,10.4375,55.1875,59.18166,-2.25,0.003321169
58906.2094,10.5,55.0625,59.71157,-2.4375,0.003346086
58906.2119,10.4375,55.0,60.75973,-2.5625,0.003378789
58906.2144,10.5,55.0,62.02977,-2.4375,0.003394362
58906.2169,10.4375,55.0,63.13888,-2.0625,0.003385018
58906.2194,10.5625,54.875,63.80782,-2.1875,0.003377232
58906.2219,10.4375,54.875,63.98647,-2.375,0.003397476
58906.2244,10.4375,54.75,63.8581,-2.625,0.00343018
58906.2269,10.3125,54.875,63.72995,-2.25,0.003422393
58906.2294,10.5,55.125,63.87468,-2.125,0.003411492
58906.2319,10.625,55.3125,64.40559,-2.5,0.00346444
58906.2344,10.5,55.625,65.24249,-2.875,0.003232403
58906.2369,10.5625,56.1875,66.17484,-2.4375,0.00393786
58906.2394,10.6875,56.8125,66.97938,-2.625,0.002572107
58906.2419,10.5625,57.5,67.52803,-3.3125,-0.002974997
58906.2444,10.5,58.5,67.83444,-3.3125,-0.003069992
58906.2469,10.5625,59.5625,68.02515,-3.0625,-0.00322105
58906.2494,10.625,60.6875,68.25973,-2.5,-0.0021543
58906.2519,10.75,61.625,68.64664,-2.3125,0.003059542
58906.2544,10.75,62.75,69.19651,-2.375,0.003423951
58906.2569,10.625,63.8125,69.83012,-2.875,0.003034625
58906.2594,10.6875,64.6875,70.42884,-2.3125,0.003307153
58906.2619,10.75,65.875,70.89593,-2.5,0.003288465
58906.2644,10.8125,66.8125,71.19693,-1.9375,0.003313382
58906.2669,10.625,67.875,71.3626,-2.125,0.003358544
58906.2694,10.8125,68.9375,71.45851,-2.0625,0.003403706
58906.2719,10.9375,69.9375,71.54235,-1.875,0.003461326
58906.2744,10.875,70.9375,71.63216,-2.0,0.003509602
58906.2769,10.75,72.0625,71.70122,-1.8125,0.003531404
58906.2794,10.8125,73.125,71.69875,-2.125,0.003571894
58906.2819,10.875,74.3125,71.58383,-1.9375,0.003624842
58906.2844,11.0625,75.375,71.35454,-2.625,0.003690249
58906.2869,10.8125,76.375,71.05303,-2.0,0.003705822
58906.2894,11.0625,77.4375,70.74502,-2.1875,0.003690249
58906.2919,10.75,78.5,70.48285,-2.0625,0.003702707
58906.2944,10.9375,79.875,70.27018,-2.0,0.003716723
58906.2969,10.8125,80.8125,70.04922,-2.1875,0.003716723
58906.2994,10.875,81.9375,69.72137,-2.5,0.00368402
58906.3019,10.9375,82.9375,69.19537,-2.3125,0.003637301
58906.3044,10.875,84.0,68.44165,-2.5,0.003615499
58906.3069,10.9375,84.9375,67.52332,-2.625,0.003618613
58906.3094,10.875,85.875,66.5819,-2.1875,0.00360304
58906.3119,10.9375,86.875,65.77908,-2.3125,0.003568779
58906.3144,10.9375,87.75,65.21831,-1.9375,0.00354542
58906.3169,11.0,88.5625,64.88448,-1.8125,0.003532962
58906.3194,10.9375,89.25,64.64034,-2.3125,0.003542305
58906.3219,11.0,90.1875,64.28749,-2.1875,0.003537633
58906.3244,10.6875,90.9375,63.66576,-2.125,0.003508045
58906.3269,10.9375,91.6875,62.74077,-2.25,0.003503373
58906.3294,10.875,92.1875,61.62876,-2.0625,0.00352206
58906.3319,11.0,92.75,60.53734,-1.9375,0.003540748
58906.3344,11.0625,93.25,59.64711,-2.3125,0.003529847
58906.3369,10.9375,93.6875,58.99707,-2.4375,0.003514274
58906.3394,10.8125,94.25,58.44265,-2.375,0.00352206
58906.3419,10.75,94.8125,57.72156,-2.1875,0.003542305
58906.3444,11.0625,95.0625,56.60255,-2.4375,0.003556321
58906.3469,10.75,95.4375,55.04032,-2.4375,0.003604597
58906.3494,11.0,95.6875,53.24461,-2.4375,0.003333627
58906.3519,10.875,95.875,51.60844,-1.875,0.004023511
58906.3544,10.875,96.375,50.51399,-2.0625,0.00266866
58906.3569,10.9375,96.4375,50.10914,-1.9375,-0.002900247
58906.3594,10.6875,96.4375,50.17736,-1.75,-0.002940736
58906.3619,10.8125,96.75,50.1886,-2.125,-0.00312917
58906.3644,11.0,96.4375,49.53057,-2.125,-0.002051518
58906.3669,10.9375,96.75,47.82162,-1.875,0.003254205
58906.3694,10.9375,96.625,45.1502,-2.3125,0.003537633
58906.3719,10.75,96.5625,42.10864,-2.1875,0.003073558
58906.3744,10.9375,96.5,39.58216,-2.125,0.003310268
58906.3769,10.5625,96.3125,38.37571,-2.125,0.003307153
58906.3794,10.75,96.375,38.84873,-2.375,0.003356987
58906.3819,10.875,96.125,40.73295,-2.4375,0.003378789
58906.3844,11.0,95.875,43.22655,-2.0,0.003375674
58906.3869,10.8125,95.625,45.32619,-2.375,0.003394362
58906.3894,10.75,95.25,46.24295,-2.1875,0.003422393
58906.3919,10.8125,94.75,45.70838,-2.125,0.003445753
58906.3944,10.6875,94.4375,44.03324,-2.25,0.003444195
58906.3969,10.75,93.9375,41.90487,-2.3125,0.003428622
58906.3994,10.8125,93.4375,40.03557,-2.4375,0.003439524
58906.4019,10.8125,93.0,38.84114,-2.5625,0.003469112
58906.4044,10.875,92.375,38.30064,-2.3125,0.003472227
58906.4069,10.6875,91.9375,38.04719,-2.4375,0.00346444
58906.4094,10.875,91.5,37.61883,-2.5,0.003459768
58906.4119,10.75,90.75,36.72295,-2.25,0.003472227
58906.4144,10.9375,90.1875,35.37537,-2.1875,0.003492472
58906.4169,10.8125,89.5,33.85435,-2.25,0.003490914
58906.4194,10.8125,88.9375,32.51577,-1.625,0.003478456
58906.4219,10.75,88.125,31.58686,-1.8125,0.003476899
58906.4244,10.6875,87.25,31.05796,-1.625,0.003486243
58906.4269,10.8125,86.4375,30.72568,-2.3125,0.003503373
58906.4294,10.6875,85.75,30.3484,-2.1875,0.003500258
58906.4319,10.875,84.9375,29.81077,-2.375,0.0034878
58906.4344,10.6875,84.125,29.19341,-2.3125,0.0034878
58906.4369,10.625,83.3125,28.70544,-2.125,0.00350493
58906.4394,10.5625,82.5625,28.52372,-2.4375,0.003520503
58906.4419,10.5625,81.625,28.64182,-2.1875,0.003525175
58906.4444,10.6875,80.8125,28.8284,-2.125,0.003511159
58906.4469,10.875,80.3125,28.73168,-2.25,0.003518946
58906.4494,10.6875,79.5625,28.0788,-2.5,0.00354542
58906.4519,10.875,79.0,26.8581,-2.375,0.003557878
58906.4544,10.625,78.4375,25.37423,-2.25,0.003560993
58906.4569,10.75,77.9375,24.13196,-1.8125,0.003557878
58906.4594,10.8125,77.375,23.59746,-2.0,0.003570337
58906.4619,10.875,76.9375,23.95729,-2.1875,0.003638858
58906.4644,10.875,76.25,25.00231,-2.1875,0.00337256
58906.4669,10.6875,75.6875,26.20331,-2.5,0.004071788
58906.4694,10.9375,75.375,26.94693,-2.1875,0.002629727
58906.4719,10.8125,74.75,26.81835,-2.25,-0.003063763
58906.4744,10.8125,74.25,25.79226,-2.0625,-0.002904919
58906.4769,10.8125,73.6875,24.23992,-2.4375,-0.003060649
58906.4794,10.75,73.1875,22.75295,-2.8125,-0.002007913
58906.4819,10.875,72.875,21.87344,-3.0,0.003310268
58906.4844,10.9375,72.4375,21.86177,-2.5,0.003508045
58906.4869,10.9375,72.1875,22.60884,-2.375,0.003084459
58906.4894,10.8125,72.0,23.72155,-2.375,0.003346086
58906.4919,10.6875,71.4375,24.72553,-2.625,0.003299367
58906.4944,10.75,71.0,25.27779,-2.25,0.003316497
58906.4969,11.0625,70.8125,25.28748,-2.25,0.003363216
58906.4994,10.875,70.25,24.90059,-2.3125,0.003388133
58906.5019,10.8125,70.125,24.37628,-2.1875,0.003391247
58906.5044,11.0,69.75,23.93383,-2.25,0.003380346
58906.5069,10.75,69.375,23.65279,-2.625,0.003403706
58906.5094,10.9375,69.25,23.46959,-2.3125,0.003441081
58906.5119,10.875,68.8125,23.25554,-2.375,0.00344731
58906.5144,10.9375,68.6875,22.91882,-2.375,0.003444195
58906.5169,10.9375,68.5,22.46636,-2.375,0.003445753
58906.5194,11.0625,68.25,21.99266,-2.5,0.003475341
58906.5219,11.0625,68.0,21.60896,-2.25,0.003501816
58906.5244,10.9375,67.8125,21.36175,-2.0625,0.003497144
58906.5269,11.0,67.5,21.1925,-2.0,0.003476899
58906.5294,10.75,67.25,20.96398,-1.6875,0.003478456
58906.5319,10.9375,67.125,20.53725,-1.625,0.003498701
58906.5344,10.9375,66.9375,19.85305,-1.6875,0.003514274
58906.5369,10.9375,66.8125,18.96885,-2.125,0.003514274
58906.5394,10.875,66.75,18.03029,-2.375,0.003503373
58906.5419,10.875,66.5,17.1944,-2.25,0.003501816
58906.5444,11.0,66.375,16.54953,-2.25,0.003509602
58906.5469,10.9375,66.1875,16.07868,-2.5625,0.00352206
58906.5494,11.0625,66.0625,15.68598,-2.6875,0.003536076
58906.5519,10.8125,65.875,15.26829,-2.9375,0.003540748
58906.5544,11.0,65.875,14.78792,-2.875,0.003564108
58906.5569,10.8125,65.375,14.30073,-2.4375,0.003595254
58906.5594,10.9375,65.1875,13.92192,-2.75,0.003617056
58906.5619,10.875,65.0,13.74805,-2.625,0.003631072
58906.5644,11.125,64.875,13.78169,-2.9375,0.003632629
58906.5669,10.9375,64.625,13.90583,-2.6875,0.003637301
58906.5694,10.9375,64.4375,13.9284,-2.875,0.003679348
58906.5719,10.875,64.3125,13.67722,-2.8125,0.003687134
58906.5744,11.0625,64.0625,13.09542,-2.8125,0.00368402
58906.5769,11.0,64.0,12.2863,-2.875,0.003749426
58906.5794,11.0,63.75,11.47874,-3.4375,0.003453539
58906.5819,11.0,63.6875,10.92869,-3.1875,0.004294481
58906.5844,11.0625,63.5,10.80485,-3.25,0.002597024
58906.5869,11.0625,63.5,11.11361,-3.625,-0.003657095
58906.5894,10.9375,63.1875,11.70005,-3.4375,-0.003006143
58906.5919,10.9375,63.1875,12.32323,-3.5,-0.003057534
58906.5944,10.875,63.0,12.76671,-3.4375,-0.001987669
58906.5969,11.0625,62.875,12.92946,-3.3125,0.003520503
58906.5994,11.125,62.875,12.85518,-2.9375,0.003536076
58906.6019,11.0625,62.625,12.69166,-3.125,0.003040855
58906.6044,11.0,62.6875,12.60588,-3.1875,0.003336742
58906.6069,11.0,62.4375,12.70114,-3.4375,0.003294695
58906.6094,10.875,62.375,12.97702,-3.625,0.003294695
58906.6119,10.9375,62.375,13.34714,-3.5625,0.003313382
58906.6144,10.875,62.0,13.6991,-3.125,0.003333627
58906.6169,11.0625,61.9375,13.9605,-2.625,0.003369445
58906.6194,10.875,61.625,14.13627,-2.875,0.003377232
58906.6219,11.0625,61.625,14.29985,-3.125,0.003371002
58906.6244,11.0,61.5625,14.54649,-3.3125,0.003381903
58906.6269,10.875,61.5625,14.93454,-2.9375,0.003394362
58906.6294,10.9375,61.3125,15.44453,-3.125,0.003420836
58906.6319,10.9375,61.125,15.97477,-3.0625,0.003420836
58906.6344,10.875,61.1875,16.37466,-3.3125,0.003411492
58906.6369,10.9375,60.875,16.50065,-3.5625,0.003414607
58906.6394,10.875,60.875,16.27221,-2.6875,0.003436409
58906.6419,11.0,60.625,15.70667,-3.0,0.003450425
58906.6444,10.8125,60.75,14.9203,-3.4375,0.003441081
58906.6469,10.9375,60.6875,14.09445,-3.25,0.003399034
58906.6494,10.8125,60.5,13.41603,-3.4375,0.003364773
58906.6519,10.875,60.375,13.01096,-3.125,0.003380346
58906.6544,10.9375,60.5,12.89301,-2.6875,0.003455097
58906.6569,10.8125,60.4375,12.95009,-2.5625,0.003606155
58906.6594,10.8125,60.1875,12.97882,-3.4375,0.003911386
58906.6619,10.8125,60.125,12.76145,-3.25,0.004205715
58906.6644,10.875,60.125,12.1588,-3.0,0.004082689
58906.6669,10.75,59.9375,11.18024,-2.6875,0.003476899
58906.6694,10.875,59.875,9.994973,-2.6875,0.002877338
58906.6719,10.6875,59.8125,8.868688,-2.8125,0.002836848
58906.6744,10.75,59.75,8.048386,-3.375,0.002944302
58906.6769,10.75,59.6875,7.643303,-3.625,0.003051756
58906.6794,10.625,59.5,7.561112,-3.5,0.003160767
58906.6819,10.75,59.375,7.539523,-3.6875,0.003254205
58906.6844,10.5625,59.4375,7.267262,-3.5,0.003336742
58906.6869,10.6875,59.3125,6.541401,-3.1875,0.00340682
58906.6894,10.625,59.0625,5.383739,-3.4375,0.003455097
58906.6919,10.6875,58.875,4.050982,-3.5625,0.003453539
58906.6944,10.6875,58.875,2.924112,-3.6875,0.003498701
58906.6969,10.5,58.625,2.324065,-3.375,0.003263549
58906.6994,10.75,58.5,2.342445,-3.125,0.003959662
58906.7019,10.6875,58.5625,2.777354,-3.375,0.002626613
58906.7044,10.5625,58.25,3.216125,-3.0,-0.002556083
58906.7069,10.6875,58.3125,3.231659,-3.3125,-0.003725616
58906.7094,10.5625,58.0625,2.600328,-2.9375,-0.00180235
58906.7119,10.5625,58.1875,1.433128,-2.5,0.003618613
58906.7144,10.625,58.0,0.1488719,-3.0625,0.003581238
58906.7169,10.4375,57.875,-0.7035432,-3.1875,0.003034625
58906.7194,10.5,57.875,-0.6915041,-2.8125,0.003327398
58906.7219,10.5,57.75,0.3047002,-2.875,0.003286908
58906.7244,10.5625,57.8125,2.040103,-2.4375,0.00333207
58906.7269,10.6875,57.5,4.022627,-3.1875,0.003355429
58906.7294,10.5,57.5625,5.741975,-3.0625,0.003350757
58906.7319,10.6875,57.4375,6.900272,-2.9375,0.00336633
58906.7344,10.5,57.3125,7.537138,-3.125,0.003399034
58906.7369,10.6875,57.1875,7.997852,-2.875,0.003416164
58906.7394,10.5625,57.125,8.770017,-3.5625,0.003417721
58906.7419,10.625,57.125,10.27483,-3.125,0.003399034
58906.7444,10.5625,57.0625,12.71021,-3.25,0.003394362
58906.7469,10.75,56.875,16.00821,-3.1875,0.003420836
58906.7494,10.625,56.6875,19.90696,-3.0625,0.003431737
58906.7519,10.75,56.5,24.0828,-3.375,0.003420836
58906.7544,10.5625,56.25,28.27009,-3.5,0.003409935
58906.7569,10.5625,56.375,32.31615,-3.3125,0.003413049
58906.7594,10.5,56.0,36.16385,-3.375,0.003450425
58906.7619,10.5625,56.25,39.79446,-3.5625,0.003450425
58906.7644,10.5625,55.9375,43.17811,-3.25,0.003434852
58906.7669,10.625,55.9375,46.26308,-2.9375,0.003428622
58906.7694,10.5,55.6875,49.00263,-2.625,0.003439524
58906.7719,10.5,55.625,51.39041,-3.0,0.00347067
58906.7744,10.4375,55.5,53.47156,-2.625,0.003458211
58906.7769,10.375,55.4375,55.31411,-2.0625,0.00344731
58906.7794,10.4375,55.3125,56.95941,-2.25,0.003444195
58906.7819,10.375,55.0625,58.38393,-2.375,0.003465998
58906.7844,10.6875,55.0625,59.50335,-2.75,0.003473784
58906.7869,10.4375,55.0,60.22488,-2.8125,0.003462883
58906.7894,10.375,54.6875,60.51961,-2.8125,0.003456654
58906.7919,10.3125,54.75,60.47365,-2.6875,0.003458211
58906.7944,10.375,54.75,60.28432,-2.4375,0.003478456
58906.7969,10.3125,54.5625,60.19608,-2.375,0.003489357
58906.7994,10.6875,54.6875,60.40477,-2.6875,0.003478456
58906.8019,10.4375,54.625,60.9771,-2.625,0.003473784
58906.8044,10.4375,54.5,61.82631,-2.8125,0.003480013
58906.8069,10.3125,54.5,62.75518,-2.3125,0.003503373
58906.8094,10.4375,54.75,63.54593,-2.25,0.003554764
58906.8119,10.375,54.5,64.05367,-2.0625,0.00330871
58906.8144,10.375,54.375,64.26024,-1.9375,0.003964334
58906.8169,10.5625,54.5,64.26855,-2.1875,0.002659316
58906.8194,10.1875,54.4375,64.2464,-2.25,-0.002733615
58906.8219,10.375,54.75,64.35091,-2.375,-0.002928278
58906.8244,10.25,54.75,64.66869,-2.4375,-0.003132284
58906.8269,10.4375,55.25,65.19372,-2.4375,-0.002081107
58906.8294,10.4375,55.625,65.8441,-2.125,0.003067329
58906.8319,10.625,56.375,66.50336,-2.25,0.003492472
58906.8344,10.5625,57.0,67.0651,-2.4375,0.003098475
58906.8369,10.75,58.0625,67.46571,-2.75,0.003322726
58906.8394,10.5,58.8125,67.69858,-2.8125,0.003307153
58906.8419,10.375,60.0625,67.81074,-3.25,0.003360101
58906.8444,10.5,61.125,67.88602,-2.875,0.003405263
58906.8469,10.5625,62.0,68.01916,-2.5,0.003427065
58906.8494,10.75,63.0625,68.28529,-2.4375,0.003434852
58906.8519,10.5625,64.3125,68.71222,-3.0,0.003467555
58906.8544,10.8125,65.1875,69.26516,-2.625,0.003506487
58906.8569,10.625,66.0625,69.85336,-2.4375,0.003531404
58906.8594,10.875,67.3125,70.35976,-2.4375,0.003543863
58906.8619,10.625,68.0,70.68462,-2.4375,0.003554764
58906.8644,11.0,69.25,70.78442,-2.5625,0.00360304
58906.8669,10.75,70.25,70.68706,-2.5625,0.003648202
58906.8694,10.875,71.375,70.47453,-3.0,0.003674676
58906.8719,11.0,72.3125,70.24166,-2.8125,0.003691806
58906.8744,10.875,73.6875,70.05054,-3.0625,0.003715166
58906.8769,11.0625,74.6875,69.90617,-3.0,0.003750984
58906.8794,10.9375,75.9375,69.76394,-3.125,0.00379926
58906.8819,11.125,77.125,69.5612,-3.0,0.003805489
58906.8844,11.0625,78.1875,69.25436,-3.1875,0.003779015
58906.8869,11.25,79.4375,68.83803,-3.1875,0.003766557
58906.8894,11.0625,80.4375,68.33567,-3.375,0.003768114
58906.8919,10.8125,81.625,67.77248,-3.375,0.003754098
58906.8944,11.0,82.5,67.15115,-3.3125,0.003712051
58906.8969,10.9375,83.4375,66.45064,-3.1875,0.00368402
58906.8994,11.0,84.5,65.65012,-3.0,0.003674676
58906.9019,10.9375,85.4375,64.76077,-2.8125,0.003668447
58906.9044,11.125,86.4375,63.84146,-2.1875,0.003659103
58906.9069,11.1875,87.3125,62.98009,-2.8125,0.003646645
58906.9094,11.0,88.25,62.24539,-3.0,0.003637301
58906.9119,11.1875,88.875,61.63946,-2.75,0.003634186
58906.9144,11.0625,89.9375,61.0831,-3.125,0.003645087
58906.9169,11.3125,90.5,60.4503,-3.4375,0.003637301
58906.9194,11.125,91.25,59.63934,-3.25,0.003617056
58906.9219,11.25,91.9375,58.63924,-3.1875,0.003601483
58906.9244,11.0625,92.5625,57.54815,-2.875,0.003663775
58906.9269,11.0625,93.125,56.52417,-3.3125,0.003437966
58906.9294,11.1875,93.6875,55.68993,-3.4375,0.004098262
58906.9319,11.1875,94.1875,55.04548,-3.1875,0.002721608
58906.9344,11.25,94.5625,54.44767,-3.125,-0.002781892
58906.9369,11.125,94.9375,53.67988,-3.3125,-0.002883116
58906.9394,11.0625,95.375,52.58178,-3.5625,-0.003040404
58906.9419,11.1875,95.6875,51.16756,-3.375,-0.002011028
58906.9444,11.25,96.0,49.6534,-3.125,0.003126506
58906.9469,11.3125,96.625,48.36161,-3.875,0.003531404
58906.9494,11.3125,96.625,47.5385,-3.9375,0.003149866
58906.9519,11.25,96.875,47.18139,-3.5625,0.003394362
58906.9544,11.375,96.8125,46.98045,-3.8125,0.00337256
58906.9569,11.0625,97.0,46.42995,-4.125,0.003399034
58906.9594,11.375,96.9375,45.07408,-3.6875,0.003427065
58906.9619,11.125,96.9375,42.77189,-3.4375,0.003458211
58906.9644,11.1875,96.9375,39.84031,-3.625,0.00347067
58906.9669,11.25,96.5,36.9832,-4.0,0.003465998
58906.9694,11.125,96.5,35.01744,-3.375,0.00346444
58906.9719,11.125,96.375,34.51412,-3.4375,0.003486243
58906.9744,11.1875,96.125,35.52494,-3.1875,0.003515831
58906.9769,11.375,96.0,37.53184,-2.5,0.003523618
58906.9794,11.3125,95.5,39.65168,-3.1875,0.003506487
58906.9819,11.25,95.375,41.00369,-2.8125,0.003503373
58906.9844,11.375,95.125,41.06713,-2.875,0.003520503
58906.9869,11.1875,94.6875,39.86339,-2.9375,0.003543863
58906.9894,11.1875,94.4375,37.88462,-2.875,0.003531404
58906.9919,11.25,93.9375,35.81826,-3.125,0.003523618
58906.9944,11.3125,93.375,34.21363,-2.5625,0.003518946
58906.9969,11.1875,92.9375,33.25587,-2.3125,0.003542305
58906.9994,11.3125,92.375,32.74617,-2.4375,0.003564108
58907.0019,11.0625,91.875,32.27572,-2.1875,0.00354542
58907.0044,11.1875,91.3125,31.48285,-2.375,0.003529847
58907.0069,11.0625,90.625,30.24883,-2.75,0.003532962
58907.0094,11.25,90.0625,28.73596,-2.4375,0.003554764
58907.0119,11.4375,89.375,27.26462,-2.125,0.003560993
58907.0144,11.125,88.5625,26.11648,-1.9375,0.00354542
58907.0169,11.25,87.8125,25.38387,-2.3125,0.003542305
58907.0194,11.25,87.25,24.94841,-2.6875,0.003550092
58907.0219,11.1875,86.375,24.58929,-2.75,0.003571894
58907.0244,11.1875,85.4375,24.14307,-2.625,0.003581238
58907.0269,11.25,84.5,23.61004,-3.1875,0.003564108
58907.0294,11.125,83.6875,23.13905,-2.6875,0.003557878
58907.0319,11.1875,82.75,22.90135,-2.75,0.003579681
58907.0344,11.0625,82.0,22.93561,-2.8125,0.003593696
58907.0369,11.3125,81.125,23.06881,-2.9375,0.003601483
58907.0394,10.9375,80.5,22.97385,-3.0625,0.003632629
58907.0419,11.375,79.9375,22.34398,-2.9375,0.003380346
58907.0444,11.3125,79.3125,21.08819,-3.1875,0.00409359
58907.0469,11.375,79.0625,19.4319,-2.4375,0.002715379
58907.0494,11.3125,78.375,17.85281,-2.75,-0.002889345
58907.0519,11.375,78.125,16.8699,-2.4375,-0.002931393
58907.0544,11.5,77.4375,16.78804,-2.3125,-0.003084008
58907.0569,11.25,77.0,17.53036,-2.25,-0.002001684
58907.0594,11.3125,76.5,18.65073,-2.5625,0.003243304
58907.0619,11.125,76.0,19.52802,-1.9375,0.003543863
58907.0644,11.3125,75.5,19.64981,-2.0625,0.003140522
58907.0669,11.125,74.875,18.84788,-2.0,0.003386575
58907.0694,11.125,74.5,17.37239,-2.4375,0.003378789
58907.0719,11.1875,73.9375,15.77207,-2.375,0.003408378
58907.0744,11.125,73.4375,14.64366,-2.625,0.003419279
58907.0769,11.375,73.125,14.37266,-2.8125,0.003441081
58907.0794,11.125,72.75,14.98492,-2.5,0.003459768
58907.0819,11.4375,72.375,16.16722,-2.4375,0.003492472
58907.0844,11.5,72.0,17.43043,-3.0,0.003509602
58907.0869,11.1875,71.6875,18.32586,-2.4375,0.003492472
58907.0894,11.4375,71.375,18.61163,-2.3125,0.00350493
58907.0919,11.4375,70.9375,18.30393,-2.375,0.003542305
58907.0944,11.4375,70.625,17.61264,-2.5625,0.003550092
58907.0969,11.4375,70.125,16.81405,-3.0,0.003537633
58907.0994,11.3125,69.6875,16.13155,-2.875,0.00352829
58907.1019,11.3125,69.5,15.67538,-3.125,0.003537633
58907.1044,11.375,69.4375,15.44979,-2.8125,0.003553206
58907.1069,11.375,69.125,15.39976,-3.0,0.003571894
58907.1094,11.3125,68.9375,15.45706,-3.0625,0.003564108
58907.1119,11.5,68.875,15.55974,-3.125,0.003554764
58907.1144,11.3125,68.5,15.6453,-2.9375,0.003570337
58907.1169,11.6875,68.5625,15.63893,-3.375,0.003595254
58907.1194,11.5,68.375,15.45805,-3.1875,0.003596811
58907.1219,11.5,68.3125,15.03767,-2.75,0.003582795
58907.1244,11.5,67.9375,14.36388,-2.375,0.003592139
58907.1269,11.375,67.8125,13.49052,-2.4375,0.003617056
58907.1294,11.3125,67.5625,12.52238,-3.0,0.003637301
58907.1319,11.4375,67.375,11.57009,-2.5625,0.003651316
58907.1344,11.25,67.125,10.70093,-2.6875,0.003638858
58907.1369,11.375,66.8125,9.915582,-2.75,0.003634186
58907.1394,11.3125,66.4375,9.165873,-3.0,0.003649759
58907.1419,11.25,66.4375,8.403283,-2.75,0.003680905
58907.1444,11.4375,66.3125,7.62757,-3.0,0.003690249
58907.1469,11.375,66.125,6.902689,-3.0625,0.003685577
58907.1494,11.625,65.9375,6.32584,-2.5,0.003699593
58907.1519,11.5625,65.75,5.964693,-2.5,0.00374164
58907.1544,11.5,65.75,5.799845,-2.5,0.00381639
58907.1569,11.4375,65.5625,5.709635,-2.4375,0.003543863
58907.1594,11.625,65.3125,5.513435,-2.125,0.004244648
58907.1619,11.5,65.125,5.055785,-2.625,0.002819718
58907.1644,11.625,64.8125,4.290305,-2.1875,-0.002870658
58907.1669,11.75,64.8125,3.315897,-2.6875,-0.002764761
58907.1694,11.5625,64.625,2.344338,-2.625,-0.002911148
58907.1719,11.5625,64.625,1.611457,-2.6875,-0.001844397
58907.1744,11.4375,64.375,1.273715,-3.0625,0.00347067
58907.1769,11.625,64.375,1.3423,-3.1875,0.003691806
58907.1794,11.6875,64.1875,1.684611,-3.0,0.003238632
58907.1819,11.625,64.1875,2.089026,-2.6875,0.003478456
58907.1844,11.75,64.125,2.359478,-2.875,0.003445753
58907.1869,11.75,63.9375,2.392883,-2.875,0.003480013
58907.1894,11.75,63.9375,2.205169,-2.625,0.003494029
58907.1919,11.6875,63.6875,1.899823,-2.75,0.003486243
58907.1944,11.8125,63.5625,1.603271,-2.4375,0.00347067
58907.1969,11.5,63.25,1.40424,-2.625,0.003476899
58907.1994,11.75,63.125,1.327179,-2.0625,0.003503373
58907.2019,11.6875,62.875,1.347358,-2.5625,0.003520503
58907.2044,11.8125,62.875,1.429996,-2.5,0.003512717
58907.2069,11.8125,62.625,1.563713,-2.9375,0.003501816
58907.2094,11.6875,62.5625,1.765768,-2.8125,0.003512717
58907.2119,12.0,62.375,2.057261,-3.25,0.003534519
58907.2144,11.8125,62.375,2.426974,-3.125,0.003539191
58907.2169,11.875,62.375,2.810855,-2.8125,0.003525175
58907.2194,11.625,62.1875,3.104424,-2.5625,0.003520503
58907.2219,11.875,62.125,3.2045,-2.3125,0.003531404
58907.2244,11.8125,61.875,3.057068,-2.25,0.003548535
58907.2269,11.6875,61.9375,2.68303,-2.0,0.003554764
58907.2294,11.75,61.875,2.166056,-2.3125,0.003540748
58907.2319,11.9375,61.75,1.609083,-2.25,0.003537633
58907.2344,11.8125,61.625,1.084908,-1.9375,0.003560993
58907.2369,11.75,61.5625,0.6095195,-2.5,0.003576566
58907.2394,11.75,61.625,0.1521062,-2.6875,0.003556321
58907.2419,11.625,61.4375,-0.3279896,-2.875,0.003501816
58907.2444,11.875,61.375,-0.8446802,-2.375,0.003480013
58907.2469,11.875,61.1875,-1.375409,-2.4375,0.003556321
58907.2494,11.8125,60.9375,-1.886448,-2.8125,0.003715166
58907.2519,11.8125,61.0,-2.374979,-1.9375,0.003956547
58907.2544,11.8125,60.875,-2.894326,-2.125,0.004202601
58907.2569,11.875,60.6875,-3.535654,-2.4375,0.004180799
58907.2594,11.75,60.8125,-4.36722,-2.375,0.003699593
58907.2619,11.6875,60.6875,-5.363537,-2.1875,0.003134293
58907.2644,11.875,60.5,-6.375379,-2.4375,0.003023724
58907.2669,11.9375,60.5,-7.174408,-2.4375,0.003110933
58907.2694,11.75,60.3125,-7.56509,-2.9375,0.003276007
58907.2719,11.625,60.25,-7.51298,-2.5625,0.003123392
58907.2744,11.8125,60.25,-7.212266,-2.4375,0.004025069
58907.2769,11.875,60.1875,-7.036002,-2.8125,0.002511372
58907.2794,11.8125,60.125,-7.372441,-2.5625,-0.003435958
58907.2819,11.875,59.875,-8.416488,-2.5,-0.002926721
58907.2844,11.75,59.9375,-10.02546,-2.5,-0.002964096
58907.2869,11.9375,59.9375,-11.73032,-3.0625,-0.001867756
58907.2894,11.75,59.8125,-12.92159,-2.8125,0.003534519
58907.2919,12.0625,59.75,-13.13814,-2.6875,0.003665332
58907.2944,11.75,59.75,-12.31857,-2.6875,0.003237074
58907.2969,11.9375,59.5625,-10.87813,-3.0,0.003532962
58907.2994,11.6875,59.4375,-9.554239,-2.25,0.003511159
58907.3019,11.875,59.4375,-9.075186,-2.6875,0.003543863
58907.3044,11.8125,59.3125,-9.806158,-2.3125,0.003587467
58907.3069,12.0,59.25,-11.5516,-2.5,0.003621728
58907.3094,11.8125,58.9375,-13.62264,-2.5625,0.003645087
58907.3119,11.6875,58.875,-15.14922,-2.5,0.003654431
58907.3144,12.0,58.75,-15.48989,-2.4375,0.003666889
58907.3169,11.8125,58.5625,-14.53677,-2.625,0.003688692
58907.3194,11.875,58.625,-12.75939,-2.4375,0.00372451
58907.3219,11.75,58.375,-10.96281,-2.3125,0.003726067
58907.3244,11.9375,58.375,-9.879674,-2.75,0.003713608
58907.3269,12.0,58.3125,-9.800983,-2.4375,0.003722952
58907.3294,12.0,58.1875,-10.43244,-3.0625,0.003740083
58907.3319,11.9375,58.25,-11.04241,-3.3125,0.003760327
58907.3344,11.875,58.0,-10.81971,-3.0625,0.003766557
58907.3369,12.1875,57.9375,-9.252522,-3.0625,0.003740083
58907.3394,11.9375,57.9375,-6.334812,-3.1875,0.003750984
58907.3419,12.25,57.875,-2.504339,-2.6875,0.00378213
58907.3444,12.0,57.6875,1.637498,-2.6875,0.003796145
58907.3469,12.0625,57.4375,5.658854,-2.75,0.003788359
58907.3494,12.0,57.5625,9.497151,-2.5,0.003785244
58907.3519,12.0625,57.625,13.41983,-2.3125,0.003803932
58907.3544,12.0625,57.4375,17.77869,-2.375,0.003822619
58907.3569,11.9375,57.1875,22.70753,-2.8125,0.003838192
58907.3594,12.0,57.1875,27.94363,-2.9375,0.003827291
58907.3619,11.9375,56.8125,32.88272,-3.0,0.003821062
58907.3644,12.0625,56.75,36.84491,-2.375,0.003836635
58907.3669,11.9375,56.5,39.4095,-2.4375,0.003850651
58907.3694,12.0625,56.25,40.63429,-1.9375,0.003859995
58907.3719,11.8125,56.25,41.03958,-2.125,0.003845979
58907.3744,11.9375,56.0625,41.36083,-2.4375,0.003841307
58907.3769,11.8125,55.875,42.20021,-2.875,0.003853765
58907.3794,11.9375,55.75,43.75699,-2.5625,0.003878682
58907.3819,11.875,55.8125,45.77164,-2.8125,0.003875568
58907.3844,11.9375,55.6875,47.70451,-2.5,0.003863109
58907.3869,11.8125,55.6875,49.04599,-2.3125,0.00389737
58907.3894,11.9375,55.625,49.59024,-2.5625,0.003721395
58907.3919,11.875,55.6875,49.53294,-2.75,0.004261778
58907.3944,11.875,55.75,49.35162,-2.75,0.002637514
58907.3969,11.6875,55.5625,49.54387,-2.9375,-0.002187003
58907.3994,12.0,55.8125,50.36988,-2.8125,-0.003252197
58907.4019,11.9375,55.625,51.73359,-2.9375,-0.001425483
58907.4044,11.9375,55.6875,53.25514,-2.6875,0.003811718
58907.4069,11.875,55.75,54.4852,-2.625,0.003847536
58907.4094,11.875,55.875,55.14056,-3.0,0.003346086
58907.4119,11.875,55.875,55.23675,-2.875,0.00364353
58907.4144,11.8125,56.0,55.05671,-2.4375,0.003651316
58907.4169,11.9375,56.25,54.98374,-2.6875,0.00368402
58907.4194,11.8125,56.6875,55.29651,-2.8125,0.003702707
58907.4219,12.0625,57.375,56.03514,-2.5,0.003730739
58907.4244,12.0625,57.9375,57.00165,-3.0,0.003757213
58907.4269,12.0625,58.6875,57.88367,-2.625,0.003785244
58907.4294,11.875,59.6875,58.42672,-2.75,0.003794588
58907.4319,12.1875,60.875,58.56178,-3.0,0.003783687
58907.4344,12.125,61.75,58.42519,-3.25,0.003796145
58907.4369,12.3125,62.875,58.26921,-3.0,0.003821062
58907.4394,12.0,64.0,58.31887,-2.375,0.00383975
58907.4419,12.375,65.0,58.65387,-2.625,0.003845979
58907.4444,12.0625,66.0625,59.17504,-2.9375,0.003836635
58907.4469,12.3125,67.3125,59.66663,-2.875,0.003853765
58907.4494,12.3125,68.125,59.91432,-2.4375,0.003881797
58907.4519,12.375,69.25,59.81343,-2.9375,0.003908271
58907.4544,12.1875,70.0625,59.41106,-2.0625,0.003920729
58907.4569,12.25,71.375,58.86426,-2.4375,0.003925401
58907.4594,12.3125,72.3125,58.34275,-2.25,0.00395499
58907.4619,12.4375,73.625,57.93203,-2.0,0.004007938
58907.4644,12.5,74.75,57.59074,-2.125,0.00403597
58907.4669,12.4375,76.0,57.18388,-2.75,0.004039084
58907.4694,12.4375,77.0625,56.57062,-2.3125,0.004059329
58907.4719,12.375,78.1875,55.69628,-2.8125,0.004098262
58907.4744,12.5625,79.3125,54.63446,-2.5625,0.004130965
58907.4769,12.4375,80.5,53.55402,-2.25,0.004126293
58907.4794,12.5625,81.5625,52.62852,-2.0625,0.00411072
58907.4819,12.5625,82.625,51.93861,-2.4375,0.004106048
58907.4844,12.5,83.625,51.42381,-1.9375,0.004106048
58907.4869,12.625,84.625,50.9161,-1.9375,0.004104491
58907.4894,12.5625,85.5,50.24048,-1.9375,0.004071788
58907.4919,12.625,86.5625,49.32726,-1.9375,0.004043756
58907.4944,12.5625,87.4375,48.26947,-2.3125,0.004023511
58907.4969,12.6875,88.3125,47.28534,-2.0625,0.004018839
58907.4994,12.8125,89.375,46.59809,-1.6875,0.004014167
58907.5019,12.4375,90.125,46.29805,-2.0,0.00402974
58907.5044,12.8125,91.0,46.26777,-2.3125,0.003750984
58907.5069,12.5,91.8125,46.22344,-2.25,0.004415951
58907.5094,12.75,92.4375,45.86239,-2.4375,0.003093803
58907.5119,12.75,93.25,45.03811,-1.9375,-0.002381666
58907.5144,12.9375,93.8125,43.86163,-2.75,-0.002566984
58907.5169,12.875,94.5625,42.65817,-2.9375,-0.002750746
58907.5194,12.8125,95.1875,41.78616,-3.1875,-0.001727599
58907.5219,12.625,95.6875,41.40929,-3.125,0.003400591
58907.5244,12.875,96.125,41.35109,-2.5,0.003852208
58907.5269,12.8125,96.75,41.13313,-2.0625,0.003459768
58907.5294,12.625,97.0,40.20148,-2.4375,0.00368402
58907.5319,12.625,97.5,38.23799,-2.25,0.003682462
58907.5344,12.75,97.75,35.38995,-2.6875,0.003727624
58907.5369,12.875,98.1875,32.27623,-2.8125,0.003752541
58907.5394,12.6875,98.25,29.73672,-3.3125,0.003735411
58907.5419,12.75,98.5625,28.43,-3.125,0.003743197
58907.5444,12.75,98.4375,28.4793,-2.9375,0.003779015
58907.5469,12.8125,98.6875,29.36031,-2.9375,0.00379926
58907.5494,12.875,98.5,30.11174,-2.8125,0.00379926
58907.5519,12.8125,98.5625,29.78583,-2.875,0.003793031
58907.5544,13.0625,98.75,27.92395,-2.625,0.003802375
58907.5569,13.0,98.625,24.81699,-2.5,0.003824177
58907.5594,12.9375,98.375,21.40883,-3.0,0.003836635
58907.5619,12.9375,98.25,18.87766,-2.8125,0.003835078
58907.5644,12.9375,98.25,18.09333,-3.0625,0.003822619
58907.5669,12.875,98.125,19.21441,-3.0,0.003830406
58907.5694,13.0625,97.875,21.62005,-2.75,0.003861552
58907.5719,13.125,97.5,24.20422,-2.5,0.00385688
58907.5744,12.9375,97.25,25.88025,-2.625,0.003842864
58907.5769,12.9375,97.0,26.04544,-2.6875,0.003849094
58907.5794,12.75,96.5625,24.78675,-2.6875,0.003866224
58907.5819,12.9375,96.25,22.7495,-2.9375,0.003883354
58907.5844,12.8125,95.625,20.76184,-3.0,0.003878682
58907.5869,13.0,95.3125,19.42092,-3.125,0.003858437
58907.5894,12.8125,94.75,18.84825,-2.75,0.003859995
58907.5919,12.875,94.25,18.71558,-2.6875,0.003881797
58907.5944,12.875,93.4375,18.49412,-1.9375,0.003900484
58907.5969,12.9375,92.875,17.77076,-2.375,0.003894255
58907.5994,12.9375,92.1875,16.45793,-2.625,0.003889583
58907.6019,12.9375,91.5,14.80171,-2.625,0.003892698
58907.6044,13.0625,90.875,13.21203,-2.4375,0.0039145
58907.6069,12.6875,90.0,12.03143,-2.1875,0.003922287
58907.6094,12.75,89.125,11.37599,-2.3125,0.003920729
58907.6119,12.75,88.4375,11.12319,-2.4375,0.003909828
58907.6144,12.8125,87.8125,11.02837,-2.4375,0.003912943
58907.6169,12.8125,86.8125,10.88174,-2.125,0.003986136
58907.6194,12.9375,86.125,10.60889,-2.375,0.00372451
58907.6219,12.625,85.1875,10.26731,-2.5625,0.004373904
58907.6244,12.625,84.375,9.962255,-2.8125,0.003036183
58907.6269,12.625,83.6875,9.75286,-3.0625,-0.002419041
58907.6294,12.5625,82.875,9.614361,-2.875,-0.002545182
58907.6319,12.9375,82.125,9.474134,-2.625,-0.002713371
58907.6344,12.6875,81.3125,9.283761,-2.8125,-0.001705797
58907.6369,12.8125,80.8125,9.064425,-2.8125,0.003392805
58907.6394,12.6875,80.3125,8.884866,-3.125,0.003808604
58907.6419,12.5,79.8125,8.784245,-3.125,0.003431737
58907.6444,12.625,79.3125,8.699024,-2.375,0.003666889
58907.6469,12.375,78.6875,8.458488,-2.25,0.003634186
58907.6494,12.75,78.5,7.87256,-2.375,0.003665332
58907.6519,12.625,77.9375,6.871144,-2.5625,0.003694921
58907.6544,12.75,77.3125,5.609319,-2.4375,0.003713608
58907.6569,12.6875,76.6875,4.458886,-2.4375,0.003722952
58907.6594,12.6875,76.1875,3.865738,-2.75,0.003716723
58907.6619,12.5,75.625,4.132363,-2.5,0.003722952
58907.6644,12.75,75.25,5.239133,-2.3125,0.003764999
58907.6669,12.625,74.4375,6.809011,-2.125,0.003771229
58907.6694,12.8125,74.1875,8.25104,-2.8125,0.003755656
58907.6719,12.5625,73.75,9.020688,-2.6875,0.003749426
58907.6744,12.75,73.3125,8.86966,-2.875,0.003768114
58907.6769,12.625,72.875,7.956747,-2.25,0.003793031
58907.6794,12.6875,72.625,6.760572,-2.1875,0.003789916
58907.6819,12.75,72.1875,5.838114,-2.0625,0.003771229
58907.6844,12.6875,72.125,5.552546,-2.375,0.003766557
58907.6869,12.5625,71.6875,5.908246,-2.1875,0.003777458
58907.6894,12.6875,71.5,6.573871,-2.25,0.003794588
58907.6919,12.4375,71.375,7.072767,-2.4375,0.003791473
58907.6944,12.625,70.875,7.035048,-2.5,0.003764999
58907.6969,12.625,70.875,6.378343,-2.875,0.003768114
58907.6994,12.5,70.5,5.327025,-2.5,0.003789916
58907.7019,12.625,70.25,4.26975,-3.1875,0.003800817
58907.7044,12.4375,69.875,3.540235,-2.875,0.003789916
58907.7069,12.3125,69.6875,3.241406,-2.5625,0.003777458
58907.7094,12.5,69.4375,3.204694,-2.6875,0.003783687
58907.7119,12.375,69.125,3.098725,-2.8125,0.003800817
58907.7144,12.5,68.8125,2.622734,-2.5,0.003808604
58907.7169,12.625,68.75,1.678026,-2.625,0.003791473
58907.7194,12.4375,68.4375,0.4262649,-2.875,0.003785244
58907.7219,12.625,68.25,-0.7922025,-2.875,0.003800817
58907.7244,12.3125,68.125,-1.633451,-3.1875,0.003830406
58907.7269,12.4375,67.875,-1.925238,-2.9375,0.003827291
58907.7294,12.4375,67.5625,-1.753489,-3.0,0.003788359
58907.7319,12.5,67.3125,-1.419614,-3.1875,0.003849094
58907.7344,12.4375,67.125,-1.29432,-2.875,0.003632629
58907.7369,12.3125,66.9375,-1.642773,-3.4375,0.004330299
58907.7394,12.375,66.5625,-2.50563,-2.625,0.002992578
58907.7419,12.1875,66.5,-3.688371,-2.5625,-0.002464202
58907.7444,12.375,66.25,-4.857489,-2.3125,-0.002532724
58907.7469,12.4375,66.0625,-5.69263,-2.1875,-0.002690011
58907.7494,12.5625,66.0,-6.022819,-2.5,-0.001648177
58907.7519,12.375,65.875,-5.888031,-2.125,0.003461326
58907.7544,12.375,65.875,-5.50577,-2.0,0.003772786
58907.7569,12.4375,65.6875,-5.163812,-1.9375,0.003369445
58907.7594,12.375,65.4375,-5.094097,-2.1875,0.003646645
58907.7619,12.3125,65.25,-5.382412,-2.25,0.003645087
58907.7644,12.375,65.125,-5.94992,-2.375,0.003666889
58907.7669,12.5625,65.0,-6.60716,-2.1875,0.003698035
58907.7694,12.25,64.6875,-7.149508,-2.625,0.003713608
58907.7719,12.25,64.4375,-7.449819,-2.4375,0.003729181
58907.7744,12.1875,64.25,-7.506522,-2.125,0.003726067
58907.7769,12.25,64.25,-7.427652,-1.875,0.003708937
58907.7794,12.125,63.9375,-7.362631,-2.5625,0.00370115
58907.7819,12.5,63.9375,-7.415421,-2.4375,0.003708937
58907.7844,12.3125,63.6875,-7.583035,-2.5,0.003719838
58907.7869,12.5625,63.625,-7.751038,-2.0,0.003719838
58907.7894,12.25,63.6875,-7.7504,-1.8125,0.003698035
58907.7919,12.4375,63.5,-7.448404,-2.3125,0.003698035
58907.7944,12.1875,63.3125,-6.829464,-2.1875,0.003713608
58907.7969,12.375,63.1875,-6.023848,-2.6875,0.003722952
58907.7994,12.25,63.0625,-5.26343,-2.25,0.00370115
58907.8019,12.25,62.875,-4.780893,-1.875,0.003687134
58907.8044,12.125,62.875,-4.698042,-1.8125,0.003688692
58907.8069,12.25,62.625,-4.959318,-1.9375,0.003698035
58907.8094,12.25,62.6875,-5.348011,-2.125,0.003699593
58907.8119,12.25,62.375,-5.584543,-1.9375,0.003680905
58907.8144,12.125,62.4375,-5.464411,-1.75,0.00366066
58907.8169,12.25,62.25,-4.970009,-1.4375,0.003680905
58907.8194,12.25,62.1875,-4.297709,-1.9375,0.003702707
58907.8219,12.1875,62.0,-3.779578,-2.125,0.003688692
58907.8244,12.125,62.0,-3.730012,-2.125,0.00368402
58907.8269,12.0625,61.75,-4.288028,-1.9375,0.003694921
58907.8294,11.9375,61.625,-5.332776,-2.0,0.003713608
58907.8319,11.875,61.5625,-6.519905,-2.0625,0.003721395
58907.8344,12.0625,61.375,-7.429255,-2.6875,0.003680905
58907.8369,12.1875,61.25,-7.759225,-2.3125,0.003663775
58907.8394,12.0,61.1875,-7.475509,-2.125,0.003752541
58907.8419,11.9375,61.0625,-6.839263,-2.25,0.00393163
58907.8444,12.125,60.9375,-6.294629,-2.3125,0.004138751
58907.8469,11.75,60.8125,-6.263423,-2.0625,0.004303825
58907.8494,12.0625,60.75,-6.943007,-2.0,0.003905156
58907.8519,11.8125,60.75,-8.205684,-2.0,0.004165226
58907.8544,12.125,60.625,-9.652266,-1.9375,0.002341627
58907.8569,12.125,60.5625,-10.79833,-2.4375,-0.003259983
58907.8594,12.0,60.5,-11.30587,-2.1875,-0.003182118
58907.8619,11.875,60.5625,-11.14689,-2.4375,-0.003256868
58907.8644,12.0,60.375,-10.61611,-2.5,-0.00209045
58907.8669,12.0625,60.375,-10.18241,-2.3125,0.003212158
58907.8694,11.8125,60.25,-10.24931,-2.0625,0.00356255
58907.8719,11.9375,60.1875,-10.94199,-2.3125,0.003195027
58907.8744,11.875,60.25,-12.03149,-1.75,0.003486243
58907.8769,11.9375,59.875,-13.04169,-2.0,0.003501816
58907.8794,11.875,59.75,-13.49323,-2.1875,0.003559436
58907.8819,11.875,59.5625,-13.16773,-2.4375,0.003584352
58907.8844,11.875,59.8125,-12.25874,-2.4375,0.003590582
58907.8869,11.875,59.3125,-11.32381,-2.1875,0.003610827
58907.8894,11.8125,59.25,-11.04814,-2.375,0.003640415
58907.8919,11.875,59.3125,-11.92117,-2.3125,0.003659103
58907.8944,12.0625,59.125,-13.97703,-2.375,0.003663775
58907.8969,11.8125,59.0625,-16.72616,-2.3125,0.003663775
58907.8994,12.0625,58.8125,-19.32165,-2.125,0.003662218
58907.9019,11.875,58.875,-20.89571,-2.1875,0.003687134
58907.9044,12.1875,58.6875,-20.92105,-2.125,0.003707379
58907.9069,11.875,58.5,-19.43669,-2.625,0.003698035
58907.9094,11.8125,58.3125,-17.03544,-2.875,0.003682462
58907.9119,12.0625,58.375,-14.61457,-3.0625,0.003696478
58907.9144,11.9375,58.25,-12.99764,-3.3125,0.00372451
58907.9169,11.8125,58.125,-12.59019,-2.9375,0.00372451
58907.9194,11.6875,57.9375,-13.21559,-3.0,0.003716723
58907.9219,11.875,58.0,-14.19757,-2.625,0.003716723
58907.9244,11.75,57.6875,-14.64671,-2.0625,0.00372451
58907.9269,11.875,57.875,-13.82402,-2.25,0.003750984
58907.9294,11.6875,57.6875,-11.42587,-2.25,0.003752541
58907.9319,12.0625,57.6875,-7.676061,-2.4375,0.003733853
58907.9344,11.8125,57.5625,-3.198168,-1.75,0.003732296
58907.9369,12.125,57.4375,1.264306,-2.3125,0.003743197
58907.9394,11.8125,57.375,5.152852,-2.375,0.003763442
58907.9419,11.75,57.25,8.294518,-2.375,0.003757213
58907.9444,11.6875,57.25,10.92224,-2.5,0.003746312
58907.9469,11.625,56.8125,13.52112,-2.5625,0.003743197
58907.9494,11.8125,56.6875,16.57843,-2.9375,0.003766557
58907.9519,11.625,56.5625,20.35079,-2.75,0.003779015
58907.9544,11.625,56.25,24.74607,-2.75,0.003750984
58907.9569,11.6875,56.3125,29.36193,-2.5,0.003733853
58907.9594,11.6875,55.9375,33.65375,-2.3125,0.003749426
58907.9619,11.625,55.8125,37.15167,-2.125,0.003822619
58907.9644,11.6875,55.5625,39.63587,-1.875,0.003540748
58907.9669,11.75,55.625,41.19902,-1.9375,0.004253992
58907.9694,11.75,55.625,42.18059,-2.3125,0.002763655
58907.9719,11.6875,55.5625,43.01018,-2.4375,-0.003049747
58907.9744,11.5625,55.3125,44.03165,-2.5625,-0.002766319
58907.9769,11.5,55.25,45.38377,-2.9375,-0.002873772
58907.9794,11.4375,55.1875,46.98155,-2.375,-0.001814808
58907.9819,11.375,55.125,48.5967,-2.0625,0.003490914
58907.9844,11.5625,55.25,49.99082,-2.1875,0.003641973
58907.9869,11.5,55.125,51.03656,-2.3125,0.003212158
58907.9894,11.4375,55.125,51.77229,-2.4375,0.003476899
58907.9919,11.1875,55.1875,52.37071,-2.5,0.003427065
58907.9944,11.25,55.3125,53.0442,-2.5625,0.003450425
58907.9969,11.25,55.125,53.93657,-2.6875,0.003500258
58907.9994,11.5625,55.1875,55.05611,-2.5625,0.003537633
58908.0019,11.4375,55.1875,56.28074,-2.625,0.003553206
58908.0044,11.4375,55.1875,57.42702,-2.375,0.003553206
58908.0069,11.375,55.5,58.34418,-2.5,0.003570337
58908.0094,11.5625,55.75,58.98334,-2.6875,0.003617056
58908.0119,11.1875,56.0,59.40911,-2.875,0.003634186
58908.0144,11.5,56.75,59.75269,-2.5625,0.0036264
58908.0169,11.4375,57.375,60.13684,-2.75,0.003621728
58908.0194,11.5625,58.3125,60.6165,-3.0625,0.003638858
58908.0219,11.5,59.0625,61.16612,-2.875,0.003670004
58908.0244,11.5625,60.1875,61.71572,-3.0,0.003670004
58908.0269,11.375,61.375,62.20888,-2.875,0.003652874
58908.0294,11.375,62.625,62.64385,-2.5625,0.003668447
58908.0319,11.4375,63.5,63.0709,-2.875,0.003685577
58908.0344,11.625,64.75,63.54869,-2.5625,0.00370115
58908.0369,11.5,65.625,64.08877,-2.5,0.003713608
58908.0394,11.6875,66.6875,64.62684,-2.875,0.003708937
58908.0419,11.5625,67.6875,65.04332,-2.5625,0.00371828
58908.0444,11.4375,68.6875,65.22466,-3.25,0.003740083
58908.0469,11.6875,69.75,65.12983,-2.9375,0.003761885
58908.0494,11.625,70.75,64.82085,-2.9375,0.003777458
58908.0519,11.625,71.9375,64.43427,-2.6875,0.003772786
58908.0544,11.5,72.6875,64.10759,-2.875,0.003803932
58908.0569,11.625,74.0625,63.9029,-3.0625,0.003845979
58908.0594,11.5625,75.0625,63.77384,-2.5,0.003877125
58908.0619,11.5625,76.1875,63.59718,-3.0,0.003875568
58908.0644,11.6875,77.125,63.25154,-2.6875,0.003878682
58908.0669,11.375,78.375,62.695,-2.25,0.003903599
58908.0694,11.6875,79.4375,61.99273,-2.6875,0.00393786
58908.0719,11.5,80.5,61.27571,-2.9375,0.003928516
58908.0744,11.5625,81.75,60.65486,-2.625,0.003895813
58908.0769,11.4375,82.625,60.14548,-3.0,0.003933188
58908.0794,11.6875,83.8125,59.65451,-3.0,0.003601483
58908.0819,11.6875,84.5,59.04417,-2.5,0.004498488
58908.0844,11.625,85.75,58.23568,-2.3125,0.002623498
58908.0869,11.5625,86.4375,57.2865,-2.1875,-0.003968555
58908.0894,11.625,87.4375,56.38405,-2.125,-0.002744517
58908.0919,11.375,88.4375,55.74741,-2.375,-0.002470432
58908.0944,11.5625,89.375,55.4898,-2.1875,-0.001414582
58908.0969,11.6875,90.0625,55.52643,-2.5,0.003911386
58908.0994,11.4375,90.8125,55.59446,-3.0625,0.003774343
58908.1019,11.5625,91.8125,55.38707,-3.125,0.003261991
58908.1044,11.4375,92.375,54.73186,-3.5625,0.003565665
58908.1069,11.625,92.9375,53.70629,-3.25,0.003514274
58908.1094,11.5,93.5625,52.60767,-2.4375,0.003593696
58908.1119,11.6875,94.0625,51.77838,-2.5,0.003861552
58908.1144,11.5,94.625,51.37674,-2.1875,0.003998594
58908.1169,11.5625,95.1875,51.23129,-2.8125,0.003951875
58908.1194,11.5,95.5,50.88305,-2.9375,0.00389737
58908.1219,11.5625,95.875,49.81849,-3.0625,0.003813276
58908.1244,11.4375,96.1875,47.77945,-2.9375,0.003744754
58908.1269,11.6875,96.25,44.97451,-3.125,0.003680905
58908.1294,11.5,96.75,42.05024,-3.125,0.0036264
58908.1319,11.5625,96.8125,39.80525,-3.25,0.003615499
58908.1344,11.625,97.0,38.77731,-3.3125,0.003584352
58908.1369,11.5625,97.125,38.92126,-3.375,0.003587467
58908.1394,11.75,97.25,39.56918,-3.25,0.003609269
58908.1419,11.5,97.1875,39.72588,-3.4375,0.003609269
58908.1444,11.625,97.1875,38.57241,-3.4375,0.003601483
58908.1469,11.4375,97.3125,35.92496,-2.875,0.003584352
58908.1494,11.5,97.125,32.40112,-2.8125,0.003582795
58908.1519,11.625,97.1875,29.18378,-2.8125,0.003598368
58908.1544,11.5625,96.9375,27.47956,-2.75,0.003607712
58908.1569,11.5625,96.9375,27.93361,-2.9375,0.003610827
58908.1594,11.3125,96.75,30.2952,-2.625,0.003596811
58908.1619,11.5625,96.4375,33.50912,-2.875,0.00358591
58908.1644,11.5,96.1875,36.19232,-2.6875,0.00360304
58908.1669,11.5,95.75,37.26073,-2.6875,0.003610827
58908.1694,11.625,95.375,36.39548,-2.9375,0.003598368
58908.1719,11.4375,95.125,34.12481,-3.1875,0.003584352
58908.1744,11.375,94.625,31.49717,-3.125,0.003590582
58908.1769,11.4375,94.0625,29.53031,-2.875,0.003604597
58908.1794,11.5625,93.75,28.72561,-2.9375,0.00360304
58908.1819,11.5,92.9375,28.88805,-2.5625,0.003579681
58908.1844,11.375,92.5625,29.3197,-2.125,0.003573451
58908.1869,11.4375,91.875,29.25461,-2.5,0.003587467
58908.1894,11.375,91.625,28.28573,-2.4375,0.003601483
58908.1919,11.5625,90.875,26.55669,-2.625,0.003606155
58908.1944,11.5,90.125,24.63489,-2.8125,0.003575009
58908.1969,11.25,89.375,23.16213,-2.8125,0.003575009
58908.1994,11.375,88.75,22.49487,-2.75,0.003606155
58908.2019,11.375,88.0,22.53591,-2.75,0.003606155
58908.2044,11.25,87.125,22.83867,-3.0,0.003589024
58908.2069,11.3125,86.375,22.90322,-2.8125,0.003575009
58908.2094,11.25,85.4375,22.4793,-2.9375,0.00358591
58908.2119,11.3125,84.75,21.69769,-2.875,0.003621728
58908.2144,11.125,83.6875,20.96032,-3.125,0.003593696
58908.2169,11.1875,83.0,20.66466,-2.625,0.003573451
58908.2194,11.4375,82.25,20.93391,-2.1875,0.003554764
58908.2219,11.25,81.5625,21.5167,-2.4375,0.003557878
58908.2244,11.375,80.8125,21.91765,-2.0625,0.003584352
58908.2269,11.375,80.3125,21.68254,-2.4375,0.003573451
58908.2294,11.1875,79.625,20.6729,-2.5,0.003548535
58908.2319,11.3125,78.9375,19.1693,-2.5625,0.003546977
58908.2344,11.25,78.5625,17.74202,-2.8125,0.003542305
58908.2369,11.3125,78.0625,16.95785,-3.0625,0.003559436
58908.2394,11.25,77.5,17.08302,-2.9375,0.003560993
58908.2419,11.375,76.875,17.94271,-2.8125,0.003529847
58908.2444,11.1875,76.3125,19.00992,-2.9375,0.003531404
58908.2469,11.3125,75.875,19.67188,-2.875,0.003548535
58908.2494,11.375,75.375,19.53066,-2.8125,0.003551649
58908.2519,11.4375,74.9375,18.58348,-2.75,0.003536076
58908.2544,11.25,74.5,17.19928,-2.6875,0.003506487
58908.2569,11.3125,74.0,15.91893,-2.25,0.003514274
58908.2594,11.3125,73.5,15.19264,-2.875,0.00352829
58908.2619,11.4375,73.0625,15.1906,-2.8125,0.003526732
58908.2644,11.25,72.6875,15.77111,-2.6875,0.003517389
58908.2669,11.3125,72.0625,16.59974,-3.0625,0.003500258
58908.2694,11.3125,71.8125,17.33829,-3.3125,0.003506487
58908.2719,11.375,71.5625,17.79703,-3.125,0.00352829
58908.2744,11.125,71.0625,17.97988,-3.25,0.003518946
58908.2769,11.4375,70.8125,18.01982,-2.875,0.003511159
58908.2794,11.25,70.4375,18.06099,-3.3125,0.003492472
58908.2819,11.3125,70.125,18.16388,-3.1875,0.003494029
58908.2844,11.3125,69.8125,18.28338,-2.875,0.003508045
58908.2869,11.4375,69.6875,18.31916,-3.375,0.003503373
58908.2894,11.1875,69.1875,18.19508,-3.1875,0.003483128
58908.2919,11.5625,69.125,17.91271,-3.0,0.003475341
58908.2944,11.3125,68.8125,17.54789,-3.125,0.003489357
58908.2969,11.1875,68.625,17.19842,-2.6875,0.003495586
58908.2994,11.3125,68.375,16.92003,-2.75,0.003480013
58908.3019,11.4375,68.125,16.69314,-3.1875,0.003456654
58908.3044,11.375,67.875,16.43948,-3.1875,0.00346444
58908.3069,11.3125,67.6875,16.0748,-3.25,0.003484685
58908.3094,11.4375,67.375,15.56199,-3.125,0.0034878
58908.3119,11.3125,67.375,14.93151,-3.375,0.003478456
58908.3144,11.375,67.1875,14.2587,-3.0,0.003465998
58908.3169,11.375,67.0625,13.6148,-3.3125,0.003453539
58908.3194,11.5,66.8125,13.02465,-3.75,0.003475341
58908.3219,11.375,66.4375,12.45749,-3.4375,0.003490914
58908.3244,11.4375,66.5,11.8556,-3.9375,0.003489357
58908.3269,11.3125,66.0625,11.18172,-3.8125,0.003489357
58908.3294,11.3125,66.25,10.45462,-3.9375,0.003501816
58908.3319,11.3125,65.8125,9.750738,-3.9375,0.003526732
58908.3344,11.3125,65.6875,9.170047,-3.9375,0.003537633
58908.3369,11.5,65.5,8.785758,-4.0,0.003517389
58908.3394,11.3125,65.5,8.605842,-3.5625,0.003518946
58908.3419,11.375,65.125,8.566323,-3.1875,0.003520503
58908.3444,11.5,65.0625,8.558252,-3.1875,0.003536076
58908.3469,11.3125,64.75,8.472889,-3.375,0.00354542
58908.3494,11.5,64.625,8.242974,-3.625,0.003536076
58908.3519,11.375,64.5,7.860032,-3.625,0.003532962
58908.3544,11.5625,64.4375,7.366827,-3.3125,0.003553206
58908.3569,11.375,64.25,6.833353,-3.25,0.003539191
58908.3594,11.4375,64.0,6.33166,-3.5,0.003506487
58908.3619,11.5625,64.0625,5.922077,-2.9375,0.003483128
58908.3644,11.375,63.8125,5.64979,-2.4375,0.003462883
58908.3669,11.5625,63.5625,5.545899,-2.8125,0.003462883
58908.3694,11.375,63.4375,5.625252,-2.625,0.003436409
58908.3719,11.3125,63.1875,5.879364,-2.9375,0.003400591
58908.3744,11.3125,63.375,6.269235,-2.875,0.00338969
58908.3769,11.4375,63.125,6.726616,-2.625,0.003400591
58908.3794,11.4375,63.0625,7.167727,-3.125,0.003402148
58908.3819,11.5,62.875,7.516478,-3.0,0.003381903
58908.3844,11.625,62.6875,7.72894,-2.9375,0.003350757
58908.3869,11.5625,62.6875,7.807415,-2.9375,0.003339856
58908.3894,11.375,62.4375,7.797942,-3.0,0.003339856
58908.3919,11.375,62.25,7.773595,-2.875,0.003346086
58908.3944,11.4375,62.0,7.811311,-3.0,0.00333207
58908.3969,11.3125,62.125,7.970381,-2.875,0.003300924
58908.3994,11.4375,61.875,8.277498,-2.875,0.003300924
58908.4019,11.5,61.75,8.71818,-3.375,0.003311825
58908.4044,11.375,61.5,9.233645,-3.4375,0.003316497
58908.4069,11.3125,61.625,9.724644,-3.4375,0.00330871
58908.4094,11.25,61.3125,10.06664,-3.0625,0.003282236
58908.4119,11.3125,61.3125,10.14076,-2.875,0.003279122
58908.4144,11.3125,61.125,9.876761,-2.6875,0.003300924
58908.4169,11.4375,61.125,9.293588,-2.6875,0.003296252
58908.4194,11.25,61.0625,8.515451,-2.9375,0.003260434
58908.4219,11.375,60.8125,7.744844,-3.0625,0.003202814
58908.4244,11.1875,60.625,7.191412,-2.875,0.003171668
58908.4269,11.1875,60.625,6.979856,-3.375,0.00323396
58908.4294,11.25,60.6875,7.079054,-3.125,0.003377232
58908.4319,11.1875,60.5,7.294178,-3.25,0.003634186
58908.4344,11.1875,60.4375,7.339149,-3.0,0.003958105
58908.4369,11.1875,60.3125,6.966537,-2.4375,0.00397212
58908.4394,11.0,60.3125,6.09771,-2.5,0.003423951
58908.4419,11.0625,60.1875,4.884369,-2.3125,0.002787015
58908.4444,11.0625,60.125,3.658701,-2.6875,0.002620384
58908.4469,11.1875,60.125,2.783986,-2.875,0.002710707
58908.4494,11.125,60.1875,2.471741,-2.4375,0.002804145
58908.4519,11.125,59.875,2.658231,-2.625,0.002920942
58908.4544,11.125,59.75,3.013682,-2.9375,0.00302061
58908.4569,11.0,59.6875,3.093509,-3.5625,0.003090688
58908.4594,11.0625,59.5,2.56607,-3.0,0.003156095
58908.4619,11.125,59.6875,1.402972,-3.125,0.003207486
58908.4644,11.0625,59.375,-0.07480951,-3.1875,0.003226173
58908.4669,11.0,59.375,-1.334358,-3.0625,0.00323396
58908.4694,11.0,59.0625,-1.896016,-2.9375,0.003235517
58908.4719,11.0625,59.25,-1.597001,-3.125,0.003246418
58908.4744,11.0,59.0,-0.7123811,-3.3125,0.003265106
58908.4769,10.875,59.0,0.144092,-2.9375,0.003263549
58908.4794,11.0625,58.6875,0.3073573,-3.1875,0.003247976
58908.4819,10.9375,58.6875,-0.5982419,-2.875,0.003244861
58908.4844,11.125,58.625,-2.437112,-3.0,0.00325109
58908.4869,10.75,58.4375,-4.581923,-2.6875,0.003269778
58908.4894,11.0,58.3125,-6.1798,-2.625,0.003272892
58908.4919,10.8125,58.0625,-6.544831,-2.9375,0.003246418
58908.4944,11.0625,58.1875,-5.485286,-2.75,0.003246418
58908.4969,10.9375,57.875,-3.399705,-2.3125,0.003254205
58908.4994,10.9375,57.875,-1.088022,-2.5625,0.003261991
58908.5019,10.9375,57.75,0.6338686,-2.4375,0.003252647
58908.5044,11.0625,57.5625,1.327264,-2.5625,0.003237074
58908.5069,10.9375,57.5625,1.136853,-2.4375,0.003243304
58908.5094,11.0,57.4375,0.7095674,-3.125,0.003252647
58908.5119,10.8125,57.4375,0.8712515,-3.0,0.003257319
58908.5144,11.0,57.3125,2.228264,-2.75,0.003247976
58908.5169,11.0,57.125,4.897439,-2.9375,0.003227731
58908.5194,11.125,57.0,8.495361,-3.5625,0.003223059
58908.5219,10.875,56.9375,12.38144,-3.0,0.003243304
58908.5244,11.0,56.9375,16.01657,-3.5,0.003249533
58908.5269,10.8125,56.8125,19.24209,-3.4375,0.003221501
58908.5294,11.0,56.6875,22.33094,-3.625,0.003207486
58908.5319,11.0,56.5,25.78905,-3.375,0.003219944
58908.5344,11.0625,56.4375,30.02037,-3.125,0.003240189
58908.5369,10.75,56.3125,35.04151,-2.8125,0.003227731
58908.5394,10.875,56.125,40.40397,-3.5,0.0032106
58908.5419,10.8125,56.125,45.36908,-2.9375,0.003221501
58908.5444,10.9375,55.875,49.24458,-3.125,0.003224616
58908.5469,10.75,55.75,51.70626,-3.25,0.003235517
58908.5494,10.8125,55.5,52.93642,-3.5,0.003226173
58908.5519,10.6875,55.25,53.51278,-3.375,0.00319347
58908.5544,10.8125,55.25,54.10979,-3.4375,0.003201257
58908.5569,10.6875,55.3125,55.17088,-3.4375,0.003226173
58908.5594,10.875,55.125,56.7205,-3.4375,0.003230845
58908.5619,10.8125,55.0625,58.40264,-3.1875,0.003212158
58908.5644,10.75,54.9375,59.71304,-3.625,0.003204371
58908.5669,10.6875,54.875,60.2946,-3.25,0.003209043
58908.5694,10.625,54.875,60.13762,-3.375,0.003227731
58908.5719,10.625,54.875,59.5858,-3.8125,0.003227731
58908.5744,10.75,54.9375,59.15539,-4.125,0.003205928
58908.5769,10.625,54.875,59.27203,-3.75,0.003201257
58908.5794,10.6875,54.875,60.06511,-3.625,0.003212158
58908.5819,10.5,54.75,61.32248,-3.875,0.003229288
58908.5844,10.5625,54.8125,62.61924,-3.9375,0.003235517
58908.5869,10.375,54.75,63.54374,-4.0,0.003246418
58908.5894,10.6875,54.8125,63.90026,-4.0,0.003249533
58908.5919,10.75,54.8125,63.78821,-3.9375,0.003252647
58908.5944,10.75,55.0,63.52896,-3.6875,0.003272892
58908.5969,10.6875,55.125,63.48999,-3.5,0.003299367
58908.5994,10.625,55.4375,63.90273,-3.625,0.003324283
58908.6019,10.625,55.875,64.76443,-3.125,0.003360101
58908.6044,10.4375,56.3125,65.86349,-2.9375,0.003381903
58908.6069,10.75,57.1875,66.90188,-3.0625,0.003399034
58908.6094,10.6875,57.875,67.64401,-3.1875,0.003408378
58908.6119,10.75,59.125,68.01643,-3.4375,0.003395919
58908.6144,10.8125,60.0,68.11721,-3.25,0.003397476
58908.6169,10.6875,61.0,68.14243,-2.4375,0.003422393
58908.6194,10.8125,62.0,68.27811,-2.3125,0.003425508
58908.6219,10.875,63.0625,68.6143,-2.0,0.003423951
58908.6244,10.75,64.0,69.12018,-2.125,0.003420836
58908.6269,10.6875,65.0625,69.68196,-2.4375,0.003436409
58908.6294,10.6875,66.0,70.17466,-2.25,0.00347067
58908.6319,10.875,67.0625,70.52607,-2.8125,0.003472227
58908.6344,10.75,68.0,70.74194,-2.5625,0.00346444
58908.6369,10.9375,68.9375,70.88542,-2.625,0.003490914
58908.6394,10.8125,69.9375,71.02834,-3.0,0.00352206
58908.6419,10.875,71.25,71.20383,-3.25,0.003571894
58908.6444,10.875,72.25,71.38595,-3.125,0.003589024
58908.6469,10.9375,73.5625,71.50558,-3.375,0.003590582
58908.6494,11.0625,74.5625,71.49118,-3.25,0.003623285
58908.6519,10.8125,75.625,71.31157,-3.1875,0.003651316
58908.6544,11.0625,76.8125,70.99518,-3.125,0.003670004
58908.6569,10.8125,77.75,70.6154,-2.8125,0.003640415
58908.6594,11.0625,79.0,70.24974,-2.8125,0.00366066
58908.6619,10.9375,80.125,69.93353,-2.875,0.003557878
58908.6644,11.0,81.25,69.63451,-3.1875,0.003129621
58908.6669,10.875,82.0,69.26559,-2.625,0.002992578
58908.6694,11.125,83.1875,68.73199,-2.5625,0.00288201
58908.6719,10.9375,84.0625,67.99051,-2.25,0.00289914
58908.6744,10.875,85.125,67.08759,-2.75,0.003307153
58908.6769,10.875,85.875,66.15057,-2.8125,0.003400591
58908.6794,11.0,86.875,65.33131,-3.125,0.003367888
58908.6819,10.9375,87.8125,64.72824,-3.0,0.003363216
58908.6844,11.1875,88.875,64.32719,-2.6875,0.003356987
58908.6869,10.9375,89.5,63.99977,-2.4375,0.003367888
58908.6894,11.0625,90.3125,63.5667,-2.9375,0.003375674
58908.6919,10.875,90.9375,62.89561,-3.125,0.003361659
58908.6944,10.9375,91.625,61.98046,-2.625,0.003342971
58908.6969,10.875,92.3125,60.95312,-2.9375,0.003358544
58908.6994,11.125,92.8125,60.01056,-3.1875,0.00337256
58908.7019,10.9375,93.375,59.29148,-3.25,0.003367888
58908.7044,11.25,93.9375,58.77108,-3.8125,0.003360101
58908.7069,10.9375,94.25,58.24191,-3.3125,0.0033492
58908.7094,11.0,94.8125,57.40732,-3.125,0.003352315
58908.7119,10.8125,95.25,56.04886,-2.875,0.003375674
58908.7144,11.0625,95.4375,54.17831,-3.3125,0.00338969
58908.7169,11.0,95.9375,52.08122,-3.5625,0.003369445
58908.7194,10.9375,96.25,50.20763,-3.6875,0.003352315
58908.7219,11.0625,96.5,48.94862,-4.25,0.003360101
58908.7244,10.875,96.25,48.40858,-3.9375,0.003381903
58908.7269,11.0,96.4375,48.30194,-3.5625,0.003374117
58908.7294,10.8125,96.4375,48.05042,-3.625,0.003355429
58908.7319,11.0625,96.5,47.0556,-3.4375,0.003356987
58908.7344,10.8125,96.4375,45.02269,-3.625,0.003358544
58908.7369,10.9375,96.4375,42.16949,-3.8125,0.003377232
58908.7394,10.9375,96.3125,39.19818,-3.4375,0.003369445
58908.7419,11.0,96.1875,37.0205,-3.8125,0.003342971
58908.7444,10.75,96.3125,36.35307,-3.875,0.003352315
58908.7469,10.9375,96.0625,37.37449,-4.25,0.00336633
58908.7494,10.875,95.75,39.61413,-4.0625,0.003374117
58908.7519,10.875,95.625,42.13501,-4.4375,0.003371002
58908.7544,10.875,95.3125,43.92963,-4.0,0.003346086
58908.7569,11.0,94.9375,44.34237,-4.125,0.003339856
58908.7594,10.875,94.5625,43.31979,-3.6875,0.003367888
58908.7619,10.9375,94.1875,41.37553,-3.75,0.003358544
58908.7644,10.875,93.8125,39.29957,-3.625,0.003344528
58908.7669,11.125,93.25,37.76632,-3.5625,0.00333207
58908.7694,10.8125,92.875,37.038,-3.6875,0.003336742
58908.7719,11.0,92.3125,36.90126,-3.6875,0.003371002
58908.7744,10.6875,91.6875,36.84813,-3.875,0.003356987
58908.7769,10.8125,91.1875,36.38696,-3.6875,0.003335184
58908.7794,10.8125,90.625,35.31009,-3.5,0.00333207
58908.7819,10.75,89.75,33.78062,-3.375,0.003336742
58908.7844,10.9375,89.125,32.20869,-3.5625,0.003350757
58908.7869,10.8125,88.625,31.00257,-3.1875,0.003350757
58908.7894,10.875,87.875,30.34315,-3.625,0.003335184
58908.7919,10.6875,86.875,30.10647,-3.4375,0.003344528
58908.7944,10.875,86.3125,29.96761,-3.4375,0.003358544
58908.7969,10.8125,85.25,29.61544,-3.6875,0.003361659
58908.7994,11.0,84.5,28.94555,-3.625,0.003361659
58908.8019,10.625,83.6875,28.11756,-3.6875,0.003338299
58908.8044,10.875,83.0,27.44528,-3.6875,0.003346086
58908.8069,10.75,81.875,27.18683,-3.6875,0.003364773
58908.8094,10.75,81.4375,27.3617,-3.6875,0.003377232
58908.8119,10.9375,80.625,27.7063,-3.625,0.003364773
58908.8144,10.875,79.9375,27.80121,-3.25,0.003358544
58908.8169,10.8125,79.25,27.30415,-3.3125,0.003371002
58908.8194,10.6875,78.75,26.16006,-3.125,0.003378789
58908.8219,10.9375,78.25,24.66756,-3.375,0.00337256
58908.8244,10.875,77.75,23.35728,-3.0,0.003364773
58908.8269,10.875,77.1875,22.73755,-3.125,0.003355429
58908.8294,10.875,76.75,23.03611,-2.9375,0.003360101
58908.8319,11.0,76.25,24.0718,-2.75,0.003383461
58908.8344,10.8125,75.75,25.32426,-2.8125,0.003381903
58908.8369,10.9375,75.0625,26.16967,-2.875,0.003361659
58908.8394,11.0625,74.8125,26.16706,-2.8125,0.003352315
58908.8419,10.9375,74.125,25.2563,-3.0625,0.00336633
58908.8444,10.875,73.5625,23.77538,-3.125,0.003378789
58908.8469,10.75,73.3125,22.29513,-2.8125,0.003375674
58908.8494,10.9375,72.9375,21.35775,-3.0,0.003353872
58908.8519,10.9375,72.375,21.24634,-3.4375,0.0033492
58908.8544,10.9375,72.0,21.88883,-3.4375,0.003369445
58908.8569,10.8125,71.5625,22.92816,-3.0,0.003358544
58908.8594,10.875,71.25,23.90927,-3.0625,0.003347643
58908.8619,10.75,70.6875,24.48327,-3.375,0.003336742
58908.8644,10.9375,70.5,24.53254,-3.8125,0.003338299
58908.8669,10.9375,70.1875,24.17012,-3.3125,0.003360101
58908.8694,11.0625,69.875,23.63393,-2.875,0.003346086
58908.8719,11.0,69.5,23.14424,-3.3125,0.003310268
58908.8744,10.9375,69.375,22.80156,-3.25,0.003302481
58908.8769,10.9375,68.9375,22.56935,-3.5,0.003296252
58908.8794,10.8125,68.8125,22.33521,-3.875,0.003311825
58908.8819,11.0625,68.625,22.00336,-3.8125,0.003304038
58908.8844,10.875,68.4375,21.56039,-3.625,0.003279122
58908.8869,11.0625,68.3125,21.0784,-3.5625,0.003282236
58908.8894,10.9375,67.8125,20.66086,-3.625,0.003293137
58908.8919,11.125,67.75,20.3679,-3.625,0.003305596
58908.8944,10.9375,67.375,20.16905,-3.25,0.003304038
58908.8969,11.1875,67.4375,19.95205,-3.4375,0.003290023
58908.8994,10.9375,67.125,19.58287,-3.625,0.003293137
58908.9019,11.1875,67.0625,18.98142,-3.375,0.00331494
58908.9044,11.0,66.5625,18.16897,-3.4375,0.003318054
58908.9069,11.0,66.6875,17.26095,-3.5,0.003307153
58908.9094,10.9375,66.25,16.40899,-3.6875,0.003276007
58908.9119,11.125,66.3125,15.72544,-3.8125,0.003276007
58908.9144,11.0,66.0,15.23212,-3.5625,0.003307153
58908.9169,11.1875,65.875,14.86092,-3.8125,0.003322726
58908.9194,10.9375,65.625,14.50442,-3.5625,0.00331494
58908.9219,11.0625,65.375,14.08652,-3.6875,0.003321169
58908.9244,11.0,65.3125,13.61231,-3.0625,0.003344528
58908.9269,11.125,65.1875,13.1679,-3.5625,0.00338969
58908.9294,11.0625,64.875,12.86898,-3.25,0.00338969
58908.9319,11.1875,64.8125,12.78601,-2.8125,0.003371002
58908.9344,11.0,64.6875,12.8878,-2.6875,0.003369445
58908.9369,11.0625,64.4375,13.03813,-2.875,0.003383461
58908.9394,11.0625,64.375,13.0499,-2.625,0.003419279
58908.9419,10.9375,64.125,12.77385,-2.375,0.003411492
58908.9444,11.0625,64.0,12.17867,-2.375,0.003388133
58908.9469,11.0,63.8125,11.38048,-2.1875,0.003400591
58908.9494,11.0625,63.625,10.60653,-2.3125,0.003403706
58908.9519,11.1875,63.625,10.10619,-2.625,0.003394362
58908.9544,11.0625,63.375,10.04767,-2.8125,0.003361659
58908.9569,11.125,63.1875,10.44757,-2.9375,0.003328955
58908.9594,11.0625,63.1875,11.16476,-3.0625,0.003325841
58908.9619,11.0,62.9375,11.96016,-3.125,0.003318054
58908.9644,11.0,62.8125,12.59487,-2.8125,0.003304038
58908.9669,11.0625,62.6875,12.92268,-3.125,0.003272892
58908.9694,11.0,62.5625,12.93839,-3.0625,0.003254205
58908.9719,11.0625,62.4375,12.76281,-3.125,0.003258877
58908.9744,10.9375,62.125,12.57635,-2.8125,0.003271335
58908.9769,11.1875,62.1875,12.53447,-3.4375,0.003254205
58908.9794,10.9375,61.9375,12.7044,-2.6875,0.003240189
58908.9819,11.1875,62.0,13.04995,-3.125,0.003229288
58908.9844,11.1875,61.875,13.46705,-2.875,0.003226173
58908.9869,11.0625,61.5625,13.84818,-2.9375,0.003237074
58908.9894,11.125,61.5,14.14115,-2.625,0.003219944
58908.9919,10.9375,61.4375,14.37122,-2.5625,0.003205928
58908.9944,10.9375,61.4375,14.61487,-2.25,0.003207486
58908.9969,10.9375,61.0,14.93922,-2.6875,0.003223059
58908.9994,11.125,61.125,15.34004,-3.0625,0.00323396
58909.0019,11.125,60.9375,15.71523,-3.0625,0.003218387
58909.0044,11.125,60.75,15.89411,-2.875,0.003202814
58909.0069,10.8125,60.75,15.71512,-2.9375,0.003199699
58909.0094,11.0,60.6875,15.11638,-3.25,0.003226173
58909.0119,10.9375,60.5,14.19158,-3.125,0.003221501
58909.0144,11.125,60.5,13.17534,-3.3125,0.003165439
58909.0169,10.9375,60.4375,12.35447,-3.0,0.003110933
58909.0194,10.875,60.25,11.94023,-2.5,0.003146751
58909.0219,11.0,60.125,11.96136,-2.5625,0.003286908
58909.0244,10.8125,60.125,12.23499,-2.4375,0.003512717
58909.0269,10.9375,60.0625,12.43823,-2.25,0.003836635
58909.0294,10.75,59.9375,12.25468,-2.375,0.00393786
58909.0319,10.8125,59.875,11.52836,-2.25,0.00347067
58909.0344,10.75,59.875,10.34812,-2.1875,0.002832176
58909.0369,10.8125,59.625,9.014734,-2.4375,0.002564321
58909.0394,10.75,59.5,7.898266,-2.8125,0.002606368
58909.0419,10.8125,59.5625,7.254321,-2.9375,0.002704478
58909.0444,10.6875,59.4375,7.090441,-2.75,0.00282439
58909.0469,10.8125,59.5,7.154872,-3.1875,0.002933401
58909.0494,10.625,59.25,7.061948,-2.875,0.003005037
58909.0519,10.8125,59.25,6.49513,-2.9375,0.003051756
58909.0544,10.75,59.25,5.384423,-2.375,0.003096917
58909.0569,10.75,59.125,3.962729,-2.5,0.003145194
58909.0594,10.6875,59.0,2.663248,-2.625,0.003165439
58909.0619,10.8125,58.75,1.902878,-2.5,0.003151423
58909.0644,10.625,58.6875,1.859769,-2.4375,0.003143636
58909.0669,10.75,58.625,2.36142,-3.0,0.003163881
58909.0694,10.6875,58.4375,2.948244,-2.8125,0.003195027
58909.0719,10.6875,58.1875,3.091272,-2.8125,0.003204371
58909.0744,10.6875,58.3125,2.458777,-2.625,0.003204371
58909.0769,10.5,58.0625,1.098368,-2.3125,0.003212158
58909.0794,10.75,58.0625,-0.5593767,-2.5,0.003223059
58909.0819,10.625,58.0,-1.883857,-2.5,0.003240189
58909.0844,10.8125,57.8125,-2.328012,-2.625,0.00323396
58909.0869,10.5625,57.6875,-1.674767,-2.1875,0.003218387
58909.0894,10.6875,57.8125,-0.1272354,-2.625,0.003218387
58909.0919,10.75,57.4375,1.799095,-2.1875,0.003226173
58909.0944,10.8125,57.4375,3.526041,-2.4375,0.003238632
58909.0969,10.6875,57.3125,4.68012,-2.125,0.003219944
58909.0994,10.5625,57.25,5.250769,-2.6875,0.003205928
58909.1019,10.875,57.3125,5.571643,-2.375,0.003219944
58909.1044,10.5625,57.0625,6.147225,-2.8125,0.003238632
58909.1069,10.8125,57.125,7.420669,-2.9375,0.003229288
58909.1094,10.6875,56.9375,9.598708,-2.125,0.003201257
58909.1119,10.875,57.0,12.60935,-2.625,0.003204371
58909.1144,10.625,56.6875,16.19219,-2.4375,0.003219944
58909.1169,10.8125,56.625,20.05405,-2.25,0.003257319
58909.1194,10.6875,56.5,23.99793,-2.0625,0.003160767
58909.1219,10.8125,56.4375,27.96104,-1.8125,0.003330513
58909.1244,10.625,56.25,31.95792,-2.3125,0.003003479
58909.1269,10.75,56.125,35.98086,-2.625,0.0008512902
58909.1294,10.75,56.0625,39.92984,-2.4375,-0.0002948829
58909.1319,10.75,56.0,43.61954,-2.0,-0.00111558
58909.1344,10.625,55.875,46.85862,-1.9375,-0.000497332
58909.1369,10.5625,55.625,49.54922,-2.5,0.002986349
58909.1394,10.625,55.5,51.74118,-2.625,0.003325841
58909.1419,10.5625,55.375,53.60211,-2.5,0.003072001
58909.1444,10.6875,55.3125,55.31762,-2.0625,0.003218387
58909.1469,10.4375,55.1875,56.97976,-2.1875,0.003188798
58909.1494,10.4375,54.9375,58.53043,-2.25,0.0032106
58909.1519,10.4375,54.875,59.79687,-2.4375,0.003230845
58909.1544,10.5,54.875,60.60319,-2.375,0.003258877
58909.1569,10.4375,54.625,60.89424,-2.1875,0.003254205
58909.1594,10.5625,54.75,60.80185,-2.5625,0.00323396
58909.1619,10.4375,54.6875,60.6117,-2.4375,0.003243304
58909.1644,10.625,54.6875,60.64327,-2.375,0.003282236
58909.1669,10.4375,54.6875,61.10485,-2.0,0.003285351
58909.1694,10.5,54.625,61.99852,-2.1875,0.003272892
58909.1719,10.5625,54.625,63.12378,-2.375,0.003272892
58909.1744,10.4375,54.5,64.17799,-2.1875,0.003285351
58909.1769,10.4375,54.625,64.9011,-1.9375,0.003313382
58909.1794,10.625,54.5,65.19218,-2.25,0.003305596
58909.1819,10.375,54.625,65.14326,-2.4375,0.003296252
58909.1844,10.375,54.5625,64.97964,-2.1875,0.003297809
58909.1869,10.5,54.8125,64.9444,-2.3125,0.00330871
58909.1894,10.4375,54.875,65.18838,-1.625,0.003338299
58909.1919,10.375,55.0,65.71796,-2.375,0.003335184
58909.1944,10.5,55.375,66.41813,-2.0625,0.003313382
58909.1969,10.6875,56.0,67.12803,-2.0625,0.003327398
58909.1994,10.375,56.5,67.72368,-2.1875,0.003346086
58909.2019,10.5625,57.4375,68.16525,-1.875,0.003356987
58909.2044,10.5625,58.1875,68.49253,-2.0,0.003355429
58909.2069,10.5625,59.375,68.78113,-2.1875,0.003342971
58909.2094,10.5625,60.5,69.0916,-1.5625,0.003356987
58909.2119,10.625,61.5625,69.44035,-2.0625,0.003400591
58909.2144,10.625,62.5625,69.80407,-2.1875,0.00340682
58909.2169,10.5,63.625,70.14726,-1.875,0.00340682
58909.2194,10.625,64.4375,70.4507,-1.3125,0.003411492
58909.2219,10.625,65.625,70.72194,-1.6875,0.003422393
58909.2244,10.4375,66.5625,70.98354,-1.6875,0.003465998
58909.2269,10.8125,67.6875,71.24947,-1.5,0.003484685
58909.2294,10.625,68.75,71.50742,-1.5,0.003489357
58909.2319,10.75,69.875,71.71917,-1.9375,0.003559436
58909.2344,10.625,70.625,71.83941,-2.3125,0.003394362
58909.2369,10.8125,71.875,71.84129,-2.375,0.00399548
58909.2394,10.8125,73.0,71.73354,-2.1875,0.002877338
58909.2419,10.75,74.1875,71.55882,-1.5625,-0.001764975
58909.2444,10.6875,75.25,71.37617,-1.25,-0.001861527
58909.2469,10.8125,76.5,71.23425,-2.0,-0.001911361
58909.2494,10.875,77.5,71.14956,-2.25,-0.001006569
58909.2519,10.75,78.75,71.09867,-2.1875,0.003268221
58909.2544,10.875,79.6875,71.02535,-2.5,0.003550092
58909.2569,10.8125,81.0,70.85845,-2.375,0.003213715
58909.2594,10.8125,81.75,70.53517,-2.0,0.003419279
58909.2619,10.75,82.875,70.02255,-2.0,0.003399034
58909.2644,10.6875,83.875,69.33226,-2.0625,0.003380346
58909.2669,10.8125,84.875,68.5234,-2.25,0.003361659
58909.2694,10.6875,85.9375,67.68842,-2.0625,0.003363216
58909.2719,10.875,86.75,66.92422,-1.8125,0.003391247
58909.2744,10.6875,87.625,66.29555,-2.625,0.003385018
58909.2769,10.8125,88.5625,65.80351,-2.6875,0.003358544
58909.2794,10.6875,89.375,65.37883,-2.8125,0.003344528
58909.2819,10.8125,90.25,64.90736,-2.625,0.003358544
58909.2844,10.75,90.9375,64.28068,-2.6875,0.003378789
58909.2869,10.9375,91.625,63.45018,-2.125,0.003371002
58909.2894,10.6875,92.375,62.45603,-2.4375,0.0033492
58909.2919,10.75,93.125,61.41063,-2.1875,0.003356987
58909.2944,10.6875,93.4375,60.43927,-2.625,0.00336633
58909.2969,10.75,94.125,59.60688,-2.75,0.003383461
58909.2994,10.875,94.25,58.87232,-2.6875,0.003385018
58909.3019,10.9375,94.875,58.10192,-2.9375,0.003364773
58909.3044,10.875,95.0625,57.1426,-2.75,0.003371002
58909.3069,10.8125,95.625,55.91949,-2.125,0.003386575
58909.3094,10.8125,95.8125,54.50137,-2.1875,0.003402148
58909.3119,10.8125,96.1875,53.08802,-2.3125,0.003380346
58909.3144,10.75,96.375,51.91204,-2.375,0.00336633
58909.3169,11.0625,96.5,51.09973,-2.5,0.003380346
58909.3194,10.8125,96.5625,50.56759,-1.9375,0.003399034
58909.3219,10.875,96.75,50.02299,-2.5,0.003402148
58909.3244,10.625,96.6875,49.0893,-2.875,0.003388133
58909.3269,10.875,96.6875,47.50734,-2.9375,0.003385018
58909.3294,10.75,96.4375,45.3148,-2.25,0.003391247
58909.3319,10.9375,96.5,42.90252,-2.5625,0.003411492
58909.3344,10.8125,96.3125,40.89827,-2.375,0.003405263
58909.3369,10.9375,96.375,39.91375,-2.875,0.003386575
58909.3394,10.8125,96.0625,40.26427,-2.8125,0.003378789
58909.3419,10.8125,95.875,41.79577,-2.9375,0.003392805
58909.3444,10.75,95.5,43.9105,-2.8125,0.003408378
58909.3469,10.6875,95.25,45.7904,-2.875,0.003436409
58909.3494,11.0,95.0625,46.72084,-3.4375,0.003212158
58909.3519,10.75,94.625,46.36622,-3.0625,0.003768114
58909.3544,10.875,94.375,44.8735,-2.875,0.002665545
58909.3569,10.8125,93.8125,42.76105,-2.9375,-0.001920705
58909.3594,10.8125,93.4375,40.65674,-2.8125,-0.00203283
58909.3619,10.6875,92.75,39.0177,-2.5,-0.002176102
58909.3644,10.8125,92.5,37.96578,-2.0625,-0.001310243
58909.3669,10.75,91.75,37.30601,-1.5625,0.002977005
58909.3694,10.9375,91.3125,36.69762,-2.0,0.003263549
58909.3719,10.8125,90.5625,35.87168,-2.3125,0.002938073
58909.3744,10.9375,89.875,34.77537,-2.375,0.003143636
58909.3769,10.6875,89.3125,33.57285,-2.4375,0.003148308
58909.3794,10.75,88.625,32.51853,-2.625,0.003198142
58909.3819,10.625,87.75,31.78834,-2.125,0.003229288
58909.3844,10.875,87.125,31.37343,-2.5,0.003224616
58909.3869,10.75,86.0625,31.09733,-2.8125,0.003243304
58909.3894,10.9375,85.375,30.73953,-2.8125,0.003265106
58909.3919,10.875,84.6875,30.18468,-2.4375,0.003283794
58909.3944,10.8125,83.875,29.50072,-2.75,0.003288465
58909.3969,10.75,82.9375,28.89389,-2.875,0.003272892
58909.3994,10.875,82.1875,28.56521,-2.25,0.003282236
58909.4019,10.6875,81.5,28.55538,-2.25,0.003305596
58909.4044,10.875,80.75,28.67829,-2.625,0.00331494
58909.4069,10.75,80.125,28.5948,-2.875,0.003299367
58909.4094,10.875,79.625,27.99708,-2.875,0.003297809
58909.4119,10.625,79.0,26.8045,-2.875,0.003307153
58909.4144,10.9375,78.375,25.25662,-3.0625,0.003322726
58909.4169,10.875,77.75,23.83805,-2.3125,0.003322726
58909.4194,10.875,77.3125,23.06022,-2.5,0.003319611
58909.4219,10.875,76.9375,23.20508,-2.6875,0.003316497
58909.4244,10.9375,76.5,24.16347,-2.75,0.003328955
58909.4269,10.8125,75.875,25.4574,-2.375,0.003344528
58909.4294,11.0,75.5,26.44387,-2.3125,0.003346086
58909.4319,10.9375,74.875,26.60471,-2.1875,0.00333207
58909.4344,11.125,74.5,25.78236,-1.875,0.003324283
58909.4369,10.9375,74.0,24.24804,-2.1875,0.003338299
58909.4394,10.9375,73.5,22.57229,-2.25,0.003355429
58909.4419,10.9375,73.125,21.36497,-2.1875,0.003355429
58909.4444,11.1875,72.5625,21.01141,-2.1875,0.003336742
58909.4469,11.0,72.25,21.52728,-2.125,0.00333207
58909.4494,11.125,71.8125,22.58931,-1.8125,0.003341414
58909.4519,11.125,71.4375,23.71135,-2.125,0.003356987
58909.4544,11.0625,71.1875,24.46813,-2.0,0.003336742
58909.4569,10.9375,70.75,24.65813,-2.625,0.003319611
58909.4594,11.0625,70.4375,24.33846,-2.5625,0.003324283
58909.4619,11.1875,70.125,23.7366,-2.4375,0.003378789
58909.4644,11.0,69.875,23.10413,-2.625,0.003162324
58909.4669,11.125,69.625,22.59482,-2.4375,0.003746312
58909.4694,11.125,69.375,22.22396,-2.3125,0.002536289
58909.4719,11.1875,69.25,21.91262,-2.375,-0.00221192
58909.4744,11.25,68.8125,21.57302,-2.5625,-0.002092008
58909.4769,11.0625,68.75,21.17624,-2.4375,-0.002193232
58909.4794,11.1875,68.625,20.76273,-2.8125,-0.001358519
58909.4819,11.1875,68.1875,20.39753,-2.6875,0.002991021
58909.4844,11.1875,67.875,20.10728,-3.0,0.003195027
58909.4869,11.1875,67.875,19.84291,-2.4375,0.00288201
58909.4894,11.1875,67.75,19.49553,-2.625,0.003115605
58909.4919,11.1875,67.375,18.95658,-2.9375,0.003103147
58909.4944,11.1875,67.375,18.18424,-2.625,0.003138965
58909.4969,11.1875,66.9375,17.23443,-2.75,0.003171668
58909.4994,11.125,66.875,16.23657,-2.4375,0.003205928
58909.5019,11.125,66.75,15.32835,-2.1875,0.0032106
58909.5044,11.25,66.5625,14.58846,-2.25,0.003207486
58909.5069,11.3125,66.5,14.00677,-2.6875,0.003232403
58909.5094,11.1875,66.125,13.50864,-2.125,0.00327445
58909.5119,11.1875,65.875,13.01608,-2.4375,0.003304038
58909.5144,11.125,65.625,12.50656,-1.875,0.003316497
58909.5169,11.3125,65.375,12.03118,-1.75,0.00331494
58909.5194,11.25,65.375,11.67992,-2.3125,0.003344528
58909.5219,11.25,65.3125,11.51351,-2.0625,0.00338969
58909.5244,11.25,65.125,11.50418,-2.3125,0.003388133
58909.5269,11.125,64.9375,11.52425,-2.4375,0.003377232
58909.5294,11.25,64.6875,11.39573,-2.375,0.003374117
58909.5319,11.375,64.625,10.97775,-1.8125,0.003400591
58909.5344,11.4375,64.375,10.24564,-2.0,0.003422393
58909.5369,11.375,64.375,9.318586,-1.8125,0.003419279
58909.5394,11.375,64.25,8.417417,-2.125,0.003409935
58909.5419,11.375,63.875,7.770308,-1.8125,0.003403706
58909.5444,11.4375,64.0,7.514317,-1.6875,0.003394362
58909.5469,11.25,63.75,7.639048,-1.625,0.003392805
58909.5494,11.5,63.5625,7.999156,-1.875,0.003367888
58909.5519,11.3125,63.375,8.386758,-2.0,0.003330513
58909.5544,11.5625,63.1875,8.624321,-2.0625,0.003322726
58909.5569,11.375,63.3125,8.632469,-1.8125,0.003327398
58909.5594,11.4375,63.0,8.444396,-1.75,0.003322726
58909.5619,11.5625,63.0625,8.167867,-1.875,0.00330871
58909.5644,11.25,62.75,7.922621,-1.875,0.003285351
58909.5669,11.4375,62.75,7.788754,-2.3125,0.003276007
58909.5694,11.5625,62.625,7.789021,-2.375,0.003288465
58909.5719,11.5,62.4375,7.905593,-2.125,0.003280679
58909.5744,11.5,62.375,8.111591,-2.3125,0.003265106
58909.5769,11.4375,62.1875,8.392903,-2.8125,0.003310268
58909.5794,11.3125,62.125,8.746831,-2.3125,0.003034625
58909.5819,11.4375,62.0625,9.162731,-2.3125,0.003817948
58909.5844,11.375,61.8125,9.601985,-1.8125,0.002252861
58909.5869,11.5,61.9375,9.994769,-2.6875,-0.003354978
58909.5894,11.625,61.625,10.25878,-2.625,-0.002445515
58909.5919,11.375,61.625,10.32901,-3.3125,-0.002375436
58909.5944,11.4375,61.375,10.18101,-3.5625,-0.00148466
58909.5969,11.25,61.375,9.834238,-3.625,0.003224616
58909.5994,11.5,61.3125,9.336205,-3.0625,0.003269778
58909.6019,11.375,61.25,8.740499,-2.875,0.002913156
58909.6044,11.5625,61.125,8.093972,-1.25,0.003174782
58909.6069,11.5,61.0,7.438804,-1.8125,0.003124949
58909.6094,11.25,60.875,6.820713,-2.625,0.003109376
58909.6119,11.25,60.875,6.287951,-2.8125,0.003140522
58909.6144,11.25,60.5625,5.871188,-3.25,0.003272892
58909.6169,11.5625,60.6875,5.552049,-2.625,0.003526732
58909.6194,11.3125,60.4375,5.243636,-2.4375,0.003858437
58909.6219,11.6875,60.5625,4.807893,-2.3125,0.003923844
58909.6244,11.4375,60.3125,4.115965,-2.6875,0.003469112
58909.6269,11.375,60.4375,3.128281,-2.5625,0.002883567
58909.6294,11.25,60.3125,1.949287,-2.5625,0.002678004
58909.6319,11.4375,60.25,0.8116344,-3.1875,0.002755869
58909.6344,11.3125,60.125,-0.01842331,-3.0,0.002822833
58909.6369,11.4375,60.0625,-0.3796026,-2.9375,0.002925614
58909.6394,11.25,59.9375,-0.3265973,-2.875,0.003062657
58909.6419,11.375,59.9375,-0.1417626,-2.8125,0.003181012
58909.6444,11.375,59.8125,-0.2214705,-2.375,0.003243304
58909.6469,11.4375,59.625,-0.8797089,-2.5,0.003271335
58909.6494,11.375,59.75,-2.164731,-2.875,0.003297809
58909.6519,11.375,59.5,-3.793092,-2.5625,0.003325841
58909.6544,11.3125,59.4375,-5.253483,-2.875,0.00336633
58909.6569,11.375,59.375,-6.044377,-2.6875,0.003381903
58909.6594,11.375,59.25,-5.933799,-2.25,0.003374117
58909.6619,11.1875,59.1875,-5.103802,-2.1875,0.003392805
58909.6644,11.3125,59.1875,-4.091116,-2.0,0.00343018
58909.6669,11.4375,58.875,-3.540463,-1.6875,0.003436409
58909.6694,11.5,58.875,-3.885488,-2.0625,0.003433294
58909.6719,11.25,58.8125,-5.118294,-2.1875,0.003425508
58909.6744,11.375,58.4375,-6.772686,-2.0625,0.003433294
58909.6769,11.4375,58.5,-8.138071,-2.3125,0.003451982
58909.6794,11.5,58.25,-8.600772,-2.25,0.003451982
58909.6819,11.375,58.125,-7.940253,-1.9375,0.003444195
58909.6844,11.4375,58.1875,-6.428277,-2.125,0.00344731
58909.6869,11.375,58.0,-4.680562,-1.9375,0.003458211
58909.6894,11.4375,57.875,-3.338579,-2.1875,0.003484685
58909.6919,11.4375,57.9375,-2.746208,-2.3125,0.003476899
58909.6944,11.5,57.9375,-2.786143,-2.0625,0.003506487
58909.6969,11.375,57.8125,-2.951852,-1.9375,0.003307153
58909.6994,11.5,57.5625,-2.605755,-1.875,0.003888026
58909.7019,11.4375,57.75,-1.278058,-2.4375,0.002780785
58909.7044,11.4375,57.75,1.150352,-2.5,-0.001886444
58909.7069,11.5,57.4375,4.464921,-2.25,-0.002051518
58909.7094,11.5625,57.4375,8.302408,-2.4375,-0.002235279
58909.7119,11.375,57.25,12.38014,-2.8125,-0.00146753
58909.7144,11.375,57.1875,16.62946,-2.625,0.002991021
58909.7169,11.5,57.0,21.15884,-2.9375,0.003414607
58909.7194,11.5625,56.875,26.07912,-2.375,0.003082902
58909.7219,11.5,56.6875,31.30904,-2.375,0.003305596
58909.7244,11.375,56.5,36.49264,-2.3125,0.003325841
58909.7269,11.25,56.625,41.09427,-2.375,0.003358544
58909.7294,11.4375,56.375,44.62926,-2.5625,0.003363216
58909.7319,11.4375,56.25,46.90389,-2.25,0.00337256
58909.7344,11.5,56.125,48.12487,-2.1875,0.003399034
58909.7369,11.3125,56.125,48.81024,-2.0625,0.003434852
58909.7394,11.5625,55.9375,49.54185,-2.875,0.003441081
58909.7419,11.25,55.6875,50.68649,-2.4375,0.00343018
58909.7444,11.4375,55.6875,52.23652,-2.1875,0.003425508
58909.7469,11.25,55.3125,53.84915,-2.4375,0.003459768
58909.7494,11.5,55.4375,55.06055,-2.375,0.003490914
58909.7519,11.4375,55.25,55.55712,-2.0,0.003486243
58909.7544,11.4375,55.25,55.35667,-2.625,0.003469112
58909.7569,11.3125,55.3125,54.80601,-2.375,0.003473784
58909.7594,11.375,55.4375,54.40282,-2.0625,0.003506487
58909.7619,11.5,55.4375,54.54117,-1.75,0.003523618
58909.7644,11.4375,55.5,55.31814,-2.0,0.003506487
58909.7669,11.5625,55.5,56.50016,-2.0625,0.003495586
58909.7694,11.1875,55.375,57.65921,-2.3125,0.003514274
58909.7719,11.5,55.6875,58.39839,-2.75,0.003546977
58909.7744,11.3125,55.5,58.5476,-2.75,0.003546977
58909.7769,11.4375,55.5,58.23196,-2.6875,0.00352829
58909.7794,11.375,55.625,57.7884,-2.875,0.003518946
58909.7819,11.1875,55.6875,57.58492,-2.25,0.003546977
58909.7844,11.5625,55.9375,57.84169,-2.6875,0.003560993
58909.7869,11.4375,56.4375,58.54183,-2.1875,0.003551649
58909.7894,11.6875,57.125,59.46655,-2.0,0.003540748
58909.7919,11.3125,57.8125,60.32243,-2.375,0.003551649
58909.7944,11.75,58.8125,60.88808,-1.875,0.003575009
58909.7969,11.5,59.8125,61.10656,-2.0,0.00358591
58909.7994,11.6875,60.75,61.087,-1.875,0.00358591
58909.8019,11.625,61.8125,61.02791,-2.0625,0.003575009
58909.8044,11.75,62.75,61.11117,-2.0625,0.003589024
58909.8069,11.75,63.9375,61.42104,-2.375,0.003613941
58909.8094,11.625,64.875,61.92226,-2.0625,0.003670004
58909.8119,11.75,65.8125,62.49685,-2.25,0.003461326
58909.8144,11.5,66.8125,63.0118,-1.75,0.004023511
58909.8169,11.8125,67.8125,63.3793,-2.0625,0.002900698
58909.8194,11.75,69.125,63.58233,-2.1875,-0.001726042
58909.8219,11.875,70.0,63.65906,-1.75,-0.001825709
58909.8244,11.9375,71.125,63.66097,-1.875,-0.001948736
58909.8269,11.875,72.25,63.61015,-2.3125,-0.001082877
58909.8294,11.875,73.375,63.47939,-2.3125,0.00327445
58909.8319,12.0625,74.5625,63.20491,-2.0,0.003716723
58909.8344,12.0625,75.75,62.72474,-2.125,0.003442638
58909.8369,12.1875,76.75,62.02145,-2.6875,0.003655988
58909.8394,12.0,78.0,61.14495,-2.625,0.003666889
58909.8419,12.125,79.0625,60.19994,-2.1875,0.003730739
58909.8444,11.9375,80.25,59.29945,-2.5625,0.003771229
58909.8469,11.9375,81.1875,58.50676,-2.375,0.0037759
58909.8494,12.0625,82.25,57.79719,-2.5,0.00375877
58909.8519,12.0625,83.125,57.06436,-2.5625,0.003754098
58909.8544,12.25,84.375,56.17501,-2.5625,0.003763442
58909.8569,12.0625,85.375,55.0492,-2.6875,0.003764999
58909.8594,12.3125,86.375,53.72156,-2.625,0.003740083
58909.8619,12.1875,87.375,52.34581,-2.25,0.003708937
58909.8644,12.25,88.1875,51.12999,-2.8125,0.003705822
58909.8669,12.375,89.125,50.22816,-3.0625,0.003707379
58909.8694,12.3125,90.0,49.64621,-2.6875,0.003702707
58909.8719,12.375,90.875,49.21919,-2.3125,0.003696478
58909.8744,12.1875,91.5,48.68499,-2.3125,0.00368402
58909.8769,12.1875,92.375,47.82323,-2.625,0.003690249
58909.8794,12.3125,93.125,46.58503,-2.4375,0.003708937
58909.8819,12.3125,93.5625,45.13532,-2.625,0.003694921
58909.8844,12.4375,94.375,43.77091,-2.125,0.003679348
58909.8869,12.4375,94.6875,42.74776,-2.125,0.00368402
58909.8894,12.5,95.3125,42.11103,-2.1875,0.003691806
58909.8919,12.375,95.75,41.63212,-2.3125,0.003715166
58909.8944,12.5625,96.3125,40.90911,-2.5625,0.003708937
58909.8969,12.5,96.625,39.59341,-2.5625,0.003698035
58909.8994,12.3125,97.0,37.62424,-2.5625,0.003704265
58909.9019,12.625,97.3125,35.32998,-2.375,0.003708937
58909.9044,12.4375,97.5,33.31325,-2.6875,0.00371828
58909.9069,12.6875,97.8125,32.15242,-2.5,0.00372451
58909.9094,12.5,97.75,32.06433,-2.3125,0.003712051
58909.9119,12.5625,97.9375,32.71517,-1.9375,0.003722952
58909.9144,12.4375,98.0625,33.30775,-2.1875,0.003754098
58909.9169,12.625,98.0625,32.9346,-2.25,0.003761885
58909.9194,12.5,98.0625,31.03874,-2.1875,0.003743197
58909.9219,12.5,98.25,27.74915,-1.9375,0.003735411
58909.9244,12.5,98.0,23.90323,-2.125,0.003805489
58909.9269,12.5625,97.875,20.71742,-2.25,0.003604597
58909.9294,12.4375,98.0,19.2466,-2.0625,0.004187028
58909.9319,12.5,97.875,19.89045,-2.0625,0.002991021
58909.9344,12.5,97.5,22.19158,-2.375,-0.001850626
58909.9369,12.75,97.25,25.03071,-1.9375,-0.001909804
58909.9394,12.5625,97.0,27.12758,-1.8125,-0.0020157
58909.9419,12.5,96.625,27.60396,-2.25,-0.001128039
58909.9444,12.3125,96.3125,26.33668,-2.5,0.003338299
58909.9469,12.4375,96.0,23.93897,-2.375,0.003673119
58909.9494,12.625,95.6875,21.39858,-2.3125,0.003371002
58909.9519,12.5625,95.0625,19.57161,-2.5,0.003604597
58909.9544,12.625,94.625,18.79232,-2.3125,0.003599925
58909.9569,12.4375,94.125,18.78473,-2.4375,0.003606155
58909.9594,12.5625,93.75,18.89288,-2.75,0.003641973
58909.9619,12.5,93.0625,18.48031,-2.125,0.003687134
58909.9644,12.625,92.375,17.27335,-2.25,0.003708937
58909.9669,12.5625,91.6875,15.4713,-2.125,0.003707379
58909.9694,12.6875,91.25,13.58727,-2.0,0.003712051
58909.9719,12.625,90.375,12.1335,-2.5,0.00372451
58909.9744,12.5625,89.625,11.34064,-2.0625,0.003747869
58909.9769,12.5,88.5,11.06554,-1.75,0.003768114
58909.9794,12.5,87.875,10.92267,-1.9375,0.003754098
58909.9819,12.4375,87.0,10.54284,-2.375,0.003754098
58909.9844,12.5625,86.1875,9.796329,-2.1875,0.003768114
58909.9869,12.5625,85.5,8.849689,-2.375,0.003783687
58909.9894,12.5,84.6875,8.03293,-2.3125,0.003783687
58909.9919,12.4375,84.0,7.609829,-2.25,0.003769671
58909.9944,12.4375,83.4375,7.598237,-2.3125,0.003768114
58909.9969,12.3125,82.5,7.752631,-2.625,0.003780572
58909.9994,12.5625,81.875,7.717153,-2.5625,0.003793031
58910.0019,12.4375,81.1875,7.251719,-2.75,0.003786802
58910.0044,12.4375,80.5625,6.388321,-2.3125,0.003777458
58910.0069,12.5,80.125,5.417182,-2.625,0.003771229
58910.0094,12.5,79.6875,4.70703,-2.8125,0.003786802
58910.0119,12.4375,79.0,4.466669,-2.5625,0.003796145
58910.0144,12.375,78.5625,4.595623,-1.9375,0.003783687
58910.0169,12.5,78.0625,4.722079,-2.0,0.003771229
58910.0194,12.5,77.5,4.417244,-1.875,0.0037759
58910.0219,12.3125,76.9375,3.466431,-1.9375,0.003789916
58910.0244,12.5625,76.5,2.038622,-1.8125,0.003794588
58910.0269,12.4375,75.8125,0.6471053,-1.875,0.003780572
58910.0294,12.5625,75.375,-0.09144815,-1.8125,0.003771229
58910.0319,12.375,75.0625,0.2238302,-1.8125,0.0037759
58910.0344,12.625,74.5625,1.551374,-1.4375,0.003797703
58910.0369,12.4375,74.1875,3.398876,-1.5,0.003794588
58910.0394,12.625,73.8125,5.04315,-1.6875,0.003821062
58910.0419,12.3125,73.5,5.866356,-1.6875,0.003595254
58910.0444,12.4375,73.0,5.635876,-1.9375,0.004219731
58910.0469,12.5,72.6875,4.586643,-2.125,0.002989464
58910.0494,12.4375,72.1875,3.271154,-2.5,-0.002034388
58910.0519,12.3125,72.0,2.264702,-2.5625,-0.002049961
58910.0544,12.4375,71.625,1.884504,-2.5,-0.002158972
58910.0569,12.375,71.75,2.065058,-2.375,-0.001193445
58910.0594,12.4375,71.25,2.441743,-2.25,0.003472227
58910.0619,12.5625,70.9375,2.581559,-2.125,0.003712051
58910.0644,12.4375,70.75,2.225674,-2.25,0.003339856
58910.0669,12.5,70.5625,1.412081,-2.5625,0.00358591
58910.0694,12.5,70.3125,0.4216094,-2.6875,0.00360304
58910.0719,12.5625,70.0625,-0.4086032,-2.3125,0.003638858
58910.0744,12.6875,69.75,-0.8900955,-2.5,0.003640415
58910.0769,12.625,69.5625,-1.087624,-2.5,0.003648202
58910.0794,12.625,69.25,-1.270775,-2.125,0.003676233
58910.0819,12.5625,69.0625,-1.745507,-2.25,0.003710494
58910.0844,12.5625,68.9375,-2.666367,-2.5625,0.00371828
58910.0869,12.4375,68.6875,-3.937287,-2.375,0.003708937
58910.0894,12.6875,68.5,-5.254393,-2.5,0.003721395
58910.0919,12.4375,68.3125,-6.264098,-2.3125,0.003730739
58910.0944,12.75,68.125,-6.74688,-2.3125,0.003746312
58910.0969,12.5625,67.9375,-6.727279,-2.4375,0.003752541
58910.0994,12.625,67.875,-6.45507,-2.0,0.003746312
58910.1019,12.625,67.5625,-6.274218,-1.8125,0.003764999
58910.1044,12.8125,67.5,-6.455017,-2.3125,0.003796145
58910.1069,12.5625,67.3125,-7.077463,-2.25,0.003821062
58910.1094,12.5625,67.0625,-8.020414,-2.625,0.003825734
58910.1119,12.6875,66.8125,-9.049697,-2.5,0.003805489
58910.1144,12.625,66.6875,-9.947355,-2.625,0.00381639
58910.1169,12.6875,66.5,-10.60953,-2.6875,0.003850651
58910.1194,12.875,66.5,-11.06594,-2.875,0.003850651
58910.1219,12.75,66.3125,-11.42263,-2.9375,0.003836635
58910.1244,12.75,66.0625,-11.7745,-3.0,0.003841307
58910.1269,12.6875,65.9375,-12.14321,-2.6875,0.003872453
58910.1294,12.6875,65.6875,-12.47383,-2.875,0.003894255
58910.1319,12.75,65.625,-12.68742,-2.6875,0.003878682
58910.1344,12.8125,65.375,-12.74818,-2.75,0.003841307
58910.1369,12.875,65.1875,-12.70134,-2.125,0.003822619
58910.1394,12.8125,64.9375,-12.65813,-1.8125,0.003822619
58910.1419,12.75,64.875,-12.73668,-2.125,0.003822619
58910.1444,12.6875,64.625,-12.99441,-2.0625,0.003794588
58910.1469,12.75,64.625,-13.39249,-2.1875,0.003752541
58910.1494,12.875,64.375,-13.81161,-2.0625,0.003750984
58910.1519,12.8125,64.1875,-14.10847,-2.3125,0.003766557
58910.1544,12.8125,64.125,-14.18134,-2.4375,0.00381639
58910.1569,12.75,64.0625,-14.00913,-2.5,0.003556321
58910.1594,12.9375,63.9375,-13.64702,-2.625,0.004187028
58910.1619,12.8125,63.8125,-13.19003,-2.375,0.002872666
58910.1644,12.8125,63.625,-12.72905,-2.5,-0.002285113
58910.1669,12.8125,63.4375,-12.32481,-2.1875,-0.002132497
58910.1694,12.875,63.4375,-12.00765,-2.25,-0.002236837
58910.1719,12.8125,63.4375,-11.79284,-2.0,-0.001272868
58910.1744,12.625,63.125,-11.69153,-1.6875,0.003515831
58910.1769,12.6875,63.1875,-11.70418,-1.3125,0.003690249
58910.1794,12.5,63.0,-11.80079,-1.625,0.003290023
58910.1819,12.875,62.6875,-11.90816,-1.75,0.003520503
58910.1844,12.625,62.625,-11.92405,-1.6875,0.003512717
58910.1869,12.75,62.625,-11.76296,-1.75,0.00356255
58910.1894,12.5625,62.4375,-11.41381,-1.6875,0.003601483
58910.1919,12.6875,62.375,-10.97512,-2.125,0.003617056
58910.1944,12.6875,62.3125,-10.63798,-2.25,0.003607712
58910.1969,12.5625,62.25,-10.6134,-2.1875,0.003601483
58910.1994,12.8125,62.0625,-11.03323,-1.875,0.003598368
58910.2019,12.625,62.0,-11.87493,-1.9375,0.003592139
58910.2044,12.625,61.875,-12.95383,-2.1875,0.003662218
58910.2069,12.6875,61.8125,-13.99487,-2.4375,0.003810161
58910.2094,12.5625,61.625,-14.75316,-1.9375,0.004000152
58910.2119,12.8125,61.625,-15.12418,-1.875,0.004154324
58910.2144,12.625,61.5,-15.18655,-1.6875,0.004081131
58910.2169,12.8125,61.5,-15.15422,-2.0,0.003668447
58910.2194,12.625,61.375,-15.26269,-2.1875,0.00321683
58910.2219,12.6875,61.5,-15.64975,-1.625,0.003159209
58910.2244,12.5,61.25,-16.2943,-1.6875,0.003246418
58910.2269,12.6875,61.375,-17.04424,-2.1875,0.003325841
58910.2294,12.5625,61.0625,-17.71426,-1.75,0.003419279
58910.2319,12.6875,61.125,-18.19438,-1.6875,0.003512717
58910.2344,12.4375,60.8125,-18.505,-1.9375,0.003606155
58910.2369,12.75,60.8125,-18.76579,-1.5,0.003677791
58910.2394,12.625,60.5625,-19.09853,-1.875,0.003702707
58910.2419,12.5,60.75,-19.52521,-1.75,0.003702707
58910.2444,12.5,60.3125,-19.93135,-2.0,0.003708937
58910.2469,12.5625,60.4375,-20.12549,-1.875,0.003730739
58910.2494,12.5625,60.25,-19.96983,-1.6875,0.003752541
58910.2519,12.4375,60.0,-19.5065,-1.3125,0.003752541
58910.2544,12.5625,59.9375,-18.99516,-1.3125,0.003738525
58910.2569,12.4375,59.6875,-18.82131,-1.6875,0.00374164
58910.2594,12.75,59.625,-19.30556,-1.375,0.003768114
58910.2619,12.5,59.625,-20.50687,-1.6875,0.003769671
58910.2644,12.5,59.375,-22.12981,-1.5,0.00375877
58910.2669,12.4375,59.4375,-23.60332,-2.125,0.003749426
58910.2694,12.3125,59.3125,-24.3132,-2.0,0.003808604
58910.2719,12.5625,59.125,-23.88648,-1.9375,0.00356255
58910.2744,12.375,59.125,-22.3882,-1.8125,0.00428981
58910.2769,12.3125,58.9375,-20.32291,-1.5625,0.00276677
58910.2794,12.5625,59.0,-18.42325,-2.0,-0.002856642
58910.2819,12.4375,58.6875,-17.31528,-1.9375,-0.002241509
58910.2844,12.5,58.75,-17.21581,-1.5625,-0.002241509
58910.2869,12.4375,58.625,-17.80854,-1.5,-0.001255737
58910.2894,12.4375,58.5,-18.36557,-1.75,0.003732296
58910.2919,12.1875,58.625,-18.0621,-1.6875,0.003747869
58910.2944,12.375,58.1875,-16.339,-1.625,0.00331494
58910.2969,12.4375,58.25,-13.14267,-1.625,0.003592139
58910.2994,12.4375,57.9375,-8.930856,-1.8125,0.003560993
58910.3019,12.4375,58.0,-4.44616,-1.9375,0.003571894
58910.3044,12.4375,57.875,-0.3697433,-1.875,0.003604597
58910.3069,12.1875,57.6875,2.976938,-1.4375,0.00364353
58910.3094,12.4375,57.5,5.74253,-1.75,0.003652874
58910.3119,12.25,57.5625,8.423534,-1.3125,0.003657546
58910.3144,12.3125,57.3125,11.57856,-1.5,0.003657546
58910.3169,12.1875,57.25,15.52542,-1.8125,0.003670004
58910.3194,12.125,56.875,20.16759,-2.0625,0.003698035
58910.3219,12.3125,56.875,25.02844,-2.0625,0.003708937
58910.3244,12.125,56.6875,29.46668,-1.9375,0.003696478
58910.3269,12.3125,56.625,32.96026,-2.125,0.003696478
58910.3294,12.125,56.5,35.32352,-2.125,0.003707379
58910.3319,12.0625,56.3125,36.75946,-1.9375,0.00372451
58910.3344,12.125,56.3125,37.73635,-1.75,0.003732296
58910.3369,12.0,56.125,38.75872,-1.8125,0.003713608
58910.3394,12.1875,55.9375,40.1488,-2.0,0.003713608
58910.3419,12.0,55.875,41.93826,-2.125,0.003730739
58910.3444,12.125,55.875,43.90709,-2.0625,0.003743197
58910.3469,12.0,55.8125,45.73466,-1.6875,0.00374164
58910.3494,11.9375,55.875,47.17614,-1.625,0.003710494
58910.3519,11.8125,55.8125,48.17744,-1.25,0.003713608
58910.3544,12.0625,55.75,48.88036,-1.4375,0.003735411
58910.3569,11.75,55.5625,49.53033,-1.5,0.003730739
58910.3594,11.75,55.875,50.34422,-1.5,0.003729181
58910.3619,11.75,55.75,51.40871,-1.5625,0.00371828
58910.3644,11.875,55.5625,52.65714,-1.75,0.003719838
58910.3669,11.8125,55.5625,53.9251,-1.6875,0.003736968
58910.3694,11.875,55.6875,55.0458,-1.0625,0.00374164
58910.3719,11.8125,55.8125,55.93092,-1.0,0.003722952
58910.3744,11.625,56.125,56.59718,-1.3125,0.003710494
58910.3769,11.75,56.5625,57.13354,-1.1875,0.003715166
58910.3794,11.75,57.0,57.63577,-1.75,0.003726067
58910.3819,11.75,57.6875,58.15142,-2.125,0.003727624
58910.3844,11.9375,58.6875,58.6651,-2.0,0.003713608
58910.3869,11.9375,59.625,59.1278,-2.0625,0.003749426
58910.3894,11.6875,60.6875,59.50604,-1.9375,0.003548535
58910.3919,11.8125,61.625,59.81621,-2.0625,0.004155882
58910.3944,11.75,63.0,60.1202,-1.625,0.002855536
58910.3969,11.9375,64.0,60.48454,-2.0625,-0.001810136
58910.3994,11.9375,65.0,60.92934,-2.25,-0.002823939
58910.4019,11.75,65.875,61.40137,-2.25,-0.001012798
58910.4044,11.9375,67.0625,61.79188,-2.25,0.003970563
58910.4069,11.6875,67.9375,61.99207,-2.3125,0.003772786
58910.4094,11.9375,69.0,61.95563,-2.4375,0.003257319
58910.4119,11.875,69.9375,61.72908,-2.0625,0.003571894
58910.4144,11.875,71.1875,61.42843,-2.3125,0.003578123
58910.4169,11.9375,72.1875,61.17274,-2.1875,0.003641973
58910.4194,11.9375,73.3125,61.01186,-2.1875,0.003671561
58910.4219,11.8125,74.625,60.89331,-1.6875,0.003702707
58910.4244,11.9375,75.625,60.69217,-1.875,0.003749426
58910.4269,12.0625,76.6875,60.29036,-2.375,0.003808604
58910.4294,11.8125,77.6875,59.65895,-2.3125,0.003828849
58910.4319,12.0,79.125,58.89215,-2.75,0.003824177
58910.4344,11.875,80.0625,58.16577,-2.4375,0.003833521
58910.4369,11.9375,81.0,57.63916,-2.875,0.003844422
58910.4394,11.9375,82.375,57.35602,-3.0,0.003852208
58910.4419,11.9375,83.25,57.20563,-2.5,0.003836635
58910.4444,11.8125,84.5,56.97657,-2.125,0.003805489
58910.4469,11.8125,85.3125,56.47937,-2.25,0.003789916
58910.4494,11.9375,86.3125,55.66957,-2.5625,0.003785244
58910.4519,11.8125,87.25,54.69469,-2.5625,0.003771229
58910.4544,12.0625,88.4375,53.82722,-2.3125,0.003744754
58910.4569,11.6875,89.1875,53.31151,-2.0625,0.003705822
58910.4594,12.0,90.25,53.20928,-2.0,0.003694921
58910.4619,11.8125,90.875,53.33908,-2.0625,0.003712051
58910.4644,11.875,91.625,53.35611,-2.1875,0.003699593
58910.4669,11.875,92.3125,52.94146,-2.0625,0.003674676
58910.4694,11.8125,93.0,51.9958,-2.3125,0.003662218
58910.4719,11.875,93.5,50.71897,-2.1875,0.003648202
58910.4744,11.8125,94.125,49.51338,-2.1875,0.00366066
58910.4769,11.875,94.75,48.74843,-2.3125,0.00366066
58910.4794,11.875,95.125,48.51238,-2.3125,0.003632629
58910.4819,11.9375,95.625,48.50127,-2.75,0.003629514
58910.4844,11.8125,96.0625,48.1328,-2.1875,0.003640415
58910.4869,12.0,96.4375,46.8486,-2.625,0.003654431
58910.4894,11.875,96.75,44.45285,-2.75,0.003651316
58910.4919,11.8125,96.875,41.29438,-2.625,0.003631072
58910.4944,11.875,97.3125,38.16529,-2.0625,0.003631072
58910.4969,11.75,97.3125,35.93709,-1.9375,0.003638858
58910.4994,12.0,97.5,35.10606,-2.5,0.003649759
58910.5019,12.0,97.8125,35.48951,-2.5625,0.003682462
58910.5044,12.0,97.6875,36.25664,-2.375,0.003439524
58910.5069,12.0,97.875,36.31064,-2.4375,0.004057772
58910.5094,11.8125,97.75,34.85064,-2.4375,0.002853979
58910.5119,11.9375,97.8125,31.83032,-2.5625,-0.002163643
58910.5144,11.9375,97.75,28.06274,-2.1875,-0.002294457
58910.5169,11.9375,97.625,24.8913,-1.875,-0.002433056
58910.5194,11.9375,97.625,23.56822,-2.125,-0.001469087
58910.5219,11.875,97.3125,24.64116,-1.8125,0.003230845
58910.5244,11.875,97.1875,27.65692,-2.25,0.003613941
58910.5269,12.1875,96.9375,31.33976,-2.0625,0.003261991
58910.5294,11.875,96.6875,34.16501,-1.5625,0.003475341
58910.5319,11.875,96.4375,35.04856,-2.0,0.003478456
58910.5344,11.8125,96.0625,33.81293,-2.1875,0.003525175
58910.5369,11.75,95.625,31.20679,-2.625,0.003536076
58910.5394,11.8125,95.0625,28.48093,-2.875,0.003532962
58910.5419,11.9375,94.625,26.74832,-2.5625,0.003550092
58910.5444,11.9375,94.25,26.45542,-2.625,0.003581238
58910.5469,11.875,93.875,27.22538,-2.3125,0.003593696
58910.5494,11.6875,93.0,28.13125,-2.375,0.003592139
58910.5519,11.9375,92.625,28.23304,-2.5,0.003581238
58910.5544,11.875,91.9375,27.08417,-2.0625,0.003599925
58910.5569,11.8125,91.25,24.94339,-2.1875,0.0036264
58910.5594,12.0,90.625,22.59748,-1.9375,0.003631072
58910.5619,11.6875,89.875,20.91164,-2.375,0.003624842
58910.5644,11.5625,89.125,20.36401,-1.75,0.003617056
58910.5669,11.9375,88.5,20.8165,-1.9375,0.003623285
58910.5694,11.625,87.6875,21.63387,-2.3125,0.003638858
58910.5719,11.8125,86.9375,22.0675,-1.5625,0.003641973
58910.5744,11.5625,85.875,21.67953,-2.0,0.003623285
58910.5769,11.75,85.1875,20.57024,-2.4375,0.003621728
58910.5794,11.5625,84.3125,19.28944,-2.25,0.003638858
58910.5819,11.5625,83.5,18.4935,-2.375,0.003649759
58910.5844,11.625,82.6875,18.54818,-2.25,0.003634186
58910.5869,11.5,82.0625,19.30392,-2.25,0.003607712
58910.5894,11.4375,81.3125,20.16886,-2.4375,0.003610827
58910.5919,11.5,80.6875,20.43615,-2.4375,0.003610827
58910.5944,11.5,80.0625,19.68183,-2.3125,0.003624842
58910.5969,11.625,79.5,18.01201,-2.1875,0.003609269
58910.5994,11.5,78.8125,16.02362,-2.4375,0.003584352
58910.6019,11.5,78.4375,14.50055,-2.5,0.00358591
58910.6044,11.5,77.9375,14.01013,-2.25,0.00360304
58910.6069,11.4375,77.3125,14.61596,-2.4375,0.003595254
58910.6094,11.5,76.75,15.85653,-1.875,0.003582795
58910.6119,11.375,76.25,16.99427,-1.8125,0.003575009
58910.6144,11.6875,75.875,17.39668,-2.0,0.003568779
58910.6169,11.5,75.25,16.84607,-1.5625,0.003534519
58910.6194,11.625,74.9375,15.61998,-1.8125,0.003497144
58910.6219,11.5,74.25,14.3131,-1.5625,0.003476899
58910.6244,11.4375,73.8125,13.50786,-1.9375,0.003484685
58910.6269,11.5625,73.4375,13.477,-1.5625,0.003490914
58910.6294,11.4375,73.125,14.07282,-1.75,0.003508045
58910.6319,11.625,72.8125,14.85036,-1.625,0.003492472
58910.6344,11.5625,72.3125,15.34275,-1.75,0.003475341
58910.6369,11.5,71.875,15.328,-1.5,0.003473784
58910.6394,11.5625,71.625,14.93967,-1.125,0.003476899
58910.6419,11.4375,71.1875,14.56701,-1.1875,0.003486243
58910.6444,11.5,70.8125,14.60881,-1.8125,0.003472227
58910.6469,11.5,70.625,15.22516,-1.875,0.003442638
58910.6494,11.5625,70.3125,16.22838,-2.125,0.003439524
58910.6519,11.375,70.0625,17.17335,-2.1875,0.003453539
58910.6544,11.5,69.8125,17.59546,-1.9375,0.003444195
58910.6569,11.5625,69.625,17.26236,-2.375,0.003431737
58910.6594,11.375,69.3125,16.30038,-2.75,0.003417721
58910.6619,11.625,69.0,15.12668,-2.0,0.003420836
58910.6644,11.625,68.875,14.22541,-1.75,0.003439524
58910.6669,11.5,68.4375,13.89143,-2.1875,0.003427065
58910.6694,11.625,68.375,14.0811,-2.125,0.003402148
58910.6719,11.625,68.125,14.44856,-2.125,0.003388133
58910.6744,11.625,68.0,14.5436,-2.1875,0.003397476
58910.6769,11.5,67.625,14.06119,-2.375,0.003427065
58910.6794,11.625,67.6875,13.00586,-2.375,0.003411492
58910.6819,11.5,67.375,11.6839,-2.0625,0.003375674
58910.6844,11.5,67.3125,10.53092,-2.375,0.003374117
58910.6869,11.6875,66.9375,9.87185,-2.1875,0.003386575
58910.6894,11.625,66.75,9.745503,-1.8125,0.003425508
58910.6919,11.5,66.625,9.888191,-1.8125,0.003427065
58910.6944,11.375,66.6875,9.883894,-1.9375,0.003414607
58910.6969,11.4375,66.5,9.397724,-2.4375,0.003423951
58910.6994,11.625,66.3125,8.365567,-2.0,0.003451982
58910.7019,11.6875,65.9375,7.037567,-2.375,0.003458211
58910.7044,11.625,66.0,5.852695,-2.375,0.003451982
58910.7069,11.5,65.625,5.211502,-2.125,0.003441081
58910.7094,11.4375,65.5,5.267881,-2.3125,0.003437966
58910.7119,11.5,65.1875,5.848507,-2.125,0.003465998
58910.7144,11.5,65.125,6.541307,-2.0625,0.003472227
58910.7169,11.6875,64.9375,6.901794,-2.125,0.003453539
58910.7194,11.4375,64.75,6.670765,-1.9375,0.003450425
58910.7219,11.5625,64.6875,5.890824,-1.9375,0.003451982
58910.7244,11.3125,64.4375,4.868401,-2.125,0.00344731
58910.7269,11.6875,64.5625,4.006354,-2.1875,0.00343018
58910.7294,11.5,64.1875,3.598148,-2.0625,0.003391247
58910.7319,11.6875,64.0,3.691165,-1.8125,0.003375674
58910.7344,11.625,63.875,4.084775,-1.8125,0.003364773
58910.7369,11.625,63.75,4.45774,-2.25,0.003356987
58910.7394,11.5625,63.5625,4.550421,-1.8125,0.003339856
58910.7419,11.625,63.5625,4.304251,-2.1875,0.00331494
58910.7444,11.5625,63.5,3.887238,-2.5,0.00331494
58910.7469,11.4375,63.3125,3.597877,-2.4375,0.003318054
58910.7494,11.625,63.1875,3.702616,-2.375,0.003313382
58910.7519,11.4375,62.9375,4.29261,-1.6875,0.003280679
58910.7544,11.5,62.8125,5.233348,-2.125,0.003276007
58910.7569,11.5,62.8125,6.229143,-1.625,0.003277564
58910.7594,11.4375,62.5,6.965535,-2.0625,0.003286908
58910.7619,11.625,62.5,7.255555,-2.375,0.003285351
58910.7644,11.375,62.25,7.117574,-2.4375,0.003257319
58910.7669,11.4375,62.25,6.751002,-2.6875,0.003247976
58910.7694,11.375,62.0625,6.427742,-2.5625,0.003247976
58910.7719,11.375,61.9375,6.357156,-2.3125,0.003261991
58910.7744,11.375,61.875,6.591131,-2.0,0.003265106
58910.7769,11.625,61.625,7.01161,-2.4375,0.003235517
58910.7794,11.25,61.625,7.399771,-1.8125,0.003230845
58910.7819,11.3125,61.375,7.547215,-2.0625,0.003238632
58910.7844,11.4375,61.5,7.351904,-1.9375,0.003237074
58910.7869,11.25,61.1875,6.853949,-2.375,0.003190355
58910.7894,11.4375,61.1875,6.198469,-2.0,0.003137407
58910.7919,11.25,61.0,5.550543,-2.4375,0.003179454
58910.7944,11.25,61.0,5.009031,-2.625,0.003327398
58910.7969,11.1875,60.875,4.564576,-2.5,0.003548535
58910.7994,11.3125,60.875,4.122294,-2.6875,0.003822619
58910.8019,11.3125,60.875,3.574473,-2.1875,0.003850651
58910.8044,11.3125,60.8125,2.881732,-2.1875,0.003369445
58910.8069,11.25,60.625,2.115638,-2.1875,0.002782343
58910.8094,11.1875,60.5,1.43438,-1.5625,0.002586123
58910.8119,11.25,60.5625,0.9987065,-1.9375,0.002660873
58910.8144,11.25,60.375,0.8705028,-2.1875,0.002746525
58910.8169,11.25,60.375,0.9512888,-1.9375,0.002843077
58910.8194,11.25,60.125,1.002167,-1.875,0.002964547
58910.8219,11.375,60.1875,0.7486021,-2.0625,0.00305487
58910.8244,11.25,60.125,0.02638038,-1.9375,0.003104704
58910.8269,11.1875,60.0,-1.104618,-2.375,0.003146751
58910.8294,11.375,59.875,-2.34603,-2.3125,0.003173225
58910.8319,11.25,59.75,-3.272321,-2.0625,0.003204371
58910.8344,11.25,59.6875,-3.530195,-1.9375,0.003209043
58910.8369,11.0625,59.4375,-3.035705,-1.5625,0.003199699
58910.8394,11.1875,59.375,-2.06603,-1.4375,0.003215272
58910.8419,11.3125,59.25,-1.181893,-1.5625,0.003229288
58910.8444,11.375,59.25,-0.9949364,-2.0,0.003238632
58910.8469,11.1875,58.9375,-1.875242,-1.8125,0.003232403
58910.8494,11.375,59.0,-3.737184,-1.875,0.003221501
58910.8519,11.1875,58.8125,-6.018259,-1.75,0.003221501
58910.8544,11.3125,58.6875,-7.882921,-1.6875,0.003240189
58910.8569,11.125,58.5625,-8.574817,-1.9375,0.003241746
58910.8594,11.25,58.4375,-7.760755,-2.0625,0.003232403
58910.8619,10.9375,58.25,-5.700312,-1.8125,0.003215272
58910.8644,11.1875,58.3125,-3.148969,-1.5625,0.003215272
58910.8669,11.3125,58.125,-1.025089,-1.375,0.003235517
58910.8694,11.1875,58.125,0.01189144,-1.9375,0.003235517
58910.8719,11.125,57.875,-0.1256888,-1.6875,0.003218387
58910.8744,11.1875,57.875,-0.90128,-2.0,0.0032106
58910.8769,11.125,57.9375,-1.392992,-2.0,0.003219944
58910.8794,11.125,57.6875,-0.7133185,-1.625,0.003227731
58910.8819,11.25,57.75,1.589907,-2.0,0.003223059
58910.8844,11.125,57.4375,5.343436,-1.5625,0.003207486
58910.8869,11.1875,57.5,9.858855,-1.75,0.003201257
58910.8894,11.0625,57.375,14.28508,-1.5,0.003209043
58910.8919,11.25,57.375,18.02522,-1.5,0.003221501
58910.8944,11.0625,57.125,21.01041,-1.5,0.003202814
58910.8969,10.9375,56.9375,23.69588,-2.0,0.003182569
58910.8994,11.25,56.9375,26.78614,-1.8125,0.003187241
58910.9019,11.0,56.75,30.83228,-1.3125,0.003195027
58910.9044,11.0625,56.625,35.90696,-1.6875,0.003195027
58910.9069,11.0625,56.4375,41.521,-1.875,0.003195027
58910.9094,11.1875,56.25,46.82198,-2.0625,0.003163881
58910.9119,11.0625,56.0625,50.97249,-2.0,0.003195027
58910.9144,10.9375,56.0625,53.51809,-2.4375,0.003385018
58910.9169,10.9375,55.875,54.56828,-2.0625,0.003358544
58910.9194,10.8125,55.625,54.70972,-2.25,0.003243304
58910.9219,10.9375,55.6875,54.70704,-2.125,0.003246418
58910.9244,10.8125,55.4375,55.14833,-2.3125,0.003240189
58910.9269,10.9375,55.375,56.20732,-2.25,0.003244861
58910.9294,10.9375,55.375,57.62814,-1.9375,0.003226173
58910.9319,10.875,55.1875,58.92344,-2.0625,0.00319347
58910.9344,11.0625,55.4375,59.66705,-1.9375,0.003195027
58910.9369,10.8125,55.1875,59.72681,-2.125,0.003201257
58910.9394,10.8125,55.3125,59.32471,-2.125,0.0032106
58910.9419,10.9375,55.125,58.90701,-1.8125,0.003195027
58910.9444,10.8125,55.0,58.90554,-2.25,0.003181012
58910.9469,10.8125,55.25,59.52024,-2.375,0.003187241
58910.9494,10.6875,55.25,60.63265,-2.0625,0.003202814
58910.9519,10.9375,55.1875,61.8862,-2.125,0.003205928
58910.9544,10.875,54.9375,62.88065,-1.6875,0.003195027
58910.9569,10.6875,55.25,63.37438,-2.0,0.003174782
58910.9594,10.875,55.375,63.39217,-1.875,0.003191913
58910.9619,10.6875,55.4375,63.19107,-1.625,0.00327445
58910.9644,11.0,55.75,63.11294,-1.5625,0.002987906
58910.9669,10.8125,56.0625,63.40666,-1.6875,0.003736968
58910.9694,10.8125,56.5,64.11131,-1.875,0.00217811
58910.9719,11.0,57.375,65.05485,-2.6875,-0.00380971
58910.9744,10.8125,58.0625,65.95879,-2.25,-0.003429729
58910.9769,10.8125,59.3125,66.58757,-2.0,-0.003448416
58910.9794,10.8125,60.25,66.86368,-2.3125,-0.002224378
58910.9819,10.8125,61.3125,66.89326,-2.6875,0.003425508
58910.9844,10.875,62.25,66.89697,-2.625,0.003465998
58910.9869,11.0,63.375,67.08841,-3.125,0.00293963
58910.9894,10.8125,64.1875,67.56602,-2.8125,0.003195027
58910.9919,10.9375,65.375,68.27187,-3.0,0.003138965
58910.9944,11.125,66.4375,69.0321,-2.75,0.003177897
58910.9969,10.9375,67.3125,69.6517,-3.0625,0.003226173
58910.9994,11.125,68.1875,70.01013,-3.0,0.003255762
58911.0019,11.0625,69.4375,70.10838,-2.9375,0.003279122
58911.0044,11.0625,70.375,70.04821,-2.75,0.003299367
58911.0069,11.25,71.375,69.9611,-2.6875,0.003328955
58911.0094,11.0625,72.4375,69.93011,-2.625,0.003386575
58911.0119,10.9375,73.6875,69.94901,-2.0625,0.003422393
58911.0144,11.125,74.875,69.93769,-2.4375,0.00344731
58911.0169,11.125,75.8125,69.8028,-2.25,0.003458211
58911.0194,11.0,76.9375,69.50294,-2.0625,0.003478456
58911.0219,11.25,78.125,69.07751,-2.0,0.003509602
58911.0244,11.0,79.0625,68.62294,-2.0625,0.003500258
58911.0269,11.1875,80.375,68.22872,-2.375,0.003469112
58911.0294,11.0,81.375,67.91379,-2.6875,0.003448867
58911.0319,11.125,82.375,67.60543,-2.3125,0.003437966
58911.0344,11.1875,83.4375,67.17811,-2.375,0.003423951
58911.0369,10.9375,84.25,66.53343,-2.0625,0.003395919
58911.0394,11.25,85.375,65.67429,-2.0,0.0033492
58911.0419,11.125,86.3125,64.72407,-1.9375,0.003327398
58911.0444,11.1875,87.25,63.87257,-2.25,0.003327398
58911.0469,11.1875,88.3125,63.27312,-2.25,0.003316497
58911.0494,11.125,88.875,62.94668,-2.0625,0.003294695
58911.0519,11.0625,89.75,62.7543,-2.125,0.003271335
58911.0544,11.0,90.625,62.46202,-2.0625,0.003261991
58911.0569,11.25,91.3125,61.86761,-2.125,0.003277564
58911.0594,11.1875,92.0,60.92095,-2.0,0.003271335
58911.0619,11.1875,92.5625,59.76356,-2.0,0.00325109
58911.0644,11.125,93.3125,58.65396,-2.0,0.003241746
58911.0669,11.25,93.6875,57.81187,-2.25,0.003243304
58911.0694,11.125,94.3125,57.26647,-2.5625,0.003263549
58911.0719,11.0,94.4375,56.80362,-1.9375,0.003266663
58911.0744,11.125,95.0625,56.05767,-1.8125,0.00325109
58911.0769,11.1875,95.3125,54.71236,-2.1875,0.003307153
58911.0794,11.0625,95.6875,52.70611,-2.5,0.003014381
58911.0819,11.25,96.25,50.32006,-2.25,0.003858437
58911.0844,11.125,96.4375,48.08078,-2.125,0.002164094
58911.0869,11.1875,96.5625,46.5079,-2.3125,-0.004057321
58911.0894,11.25,96.75,45.82965,-2.3125,-0.00324441
58911.0919,11.0625,96.875,45.82257,-2.4375,-0.003197691
58911.0944,11.125,96.75,45.8793,-2.3125,-0.002112253
58911.0969,10.9375,96.9375,45.2933,-2.4375,0.003299367
58911.0994,11.25,96.75,43.63004,-2.8125,0.003318054
58911.1019,11.125,96.8125,40.99508,-2.3125,0.002808817
58911.1044,11.25,96.875,38.04863,-2.5,0.003090688
58911.1069,11.0625,96.875,35.73816,-2.1875,0.003076673
58911.1094,11.0,96.625,34.86611,-2.0,0.003103147
58911.1119,11.0625,96.25,35.70021,-2.125,0.003131178
58911.1144,11.1875,96.25,37.82176,-2.3125,0.003165439
58911.1169,11.3125,95.9375,40.29329,-2.3125,0.003202814
58911.1194,11.0625,95.4375,42.06832,-2.6875,0.003205928
58911.1219,11.125,95.5,42.445,-2.5625,0.003205928
58911.1244,10.875,95.0625,41.34459,-2.6875,0.003221501
58911.1269,10.9375,94.375,39.28727,-2.625,0.003244861
58911.1294,11.1875,94.125,37.09129,-2.375,0.003261991
58911.1319,11.1875,93.6875,35.45868,-2.75,0.003269778
58911.1344,11.1875,93.1875,34.65997,-2.4375,0.003255762
58911.1369,11.0625,92.625,34.46769,-2.25,0.003252647
58911.1394,11.0625,92.0,34.35138,-2.1875,0.003261991
58911.1419,10.875,91.3125,33.80959,-2.625,0.003277564
58911.1444,11.0625,90.875,32.65066,-2.625,0.003279122
58911.1469,10.9375,90.375,31.075,-2.5,0.003263549
58911.1494,11.0,89.5625,29.53021,-2.5,0.003261991
58911.1519,11.0625,88.875,28.43692,-2.25,0.003269778
58911.1544,11.0625,88.1875,27.95008,-2.1875,0.003277564
58911.1569,10.9375,87.25,27.88947,-2.1875,0.00327445
58911.1594,10.9375,86.625,27.8707,-2.4375,0.003263549
58911.1619,10.9375,85.625,27.5506,-2.3125,0.003255762
58911.1644,11.0,84.875,26.83743,-2.3125,0.003282236
58911.1669,10.875,84.0,25.94109,-2.4375,0.003286908
58911.1694,11.0,83.1875,25.23515,-2.625,0.003261991
58911.1719,11.0625,82.4375,25.01391,-2.5,0.003260434
58911.1744,10.875,81.625,25.29002,-2.75,0.003276007
58911.1769,11.125,81.0625,25.75583,-2.25,0.003296252
58911.1794,11.0,80.125,25.93771,-2.5,0.003290023
58911.1819,11.0,79.625,25.46153,-1.9375,0.00327445
58911.1844,11.0,79.0625,24.28087,-2.3125,0.003282236
58911.1869,11.0625,78.5,22.73679,-1.75,0.003297809
58911.1894,11.0625,77.875,21.40818,-2.3125,0.003305596
58911.1919,10.9375,77.5,20.8258,-1.9375,0.003293137
58911.1944,11.0625,77.0,21.19836,-2.1875,0.003328955
58911.1969,10.9375,76.375,22.29532,-1.9375,0.003076673
58911.1994,11.1875,75.8125,23.54904,-1.875,0.003791473
58911.2019,11.0,75.5,24.32519,-1.5625,0.002405476
58911.2044,10.9375,74.8125,24.22431,-2.3125,-0.003328504
58911.2069,11.0625,74.4375,23.2638,-1.9375,-0.003468661
58911.2094,10.9375,73.875,21.85429,-1.625,-0.00357923
58911.2119,11.0625,73.4375,20.59031,-2.4375,-0.002339618
58911.2144,10.9375,73.0,19.96642,-2.1875,0.003173225
58911.2169,11.1875,72.6875,20.16095,-2.5625,0.003508045
58911.2194,10.9375,72.125,20.98629,-2.9375,0.003028396
58911.2219,11.25,71.8125,22.01491,-2.625,0.003263549
58911.2244,11.0,71.5,22.80308,-2.875,0.003247976
58911.2269,11.1875,71.25,23.09288,-2.625,0.003268221
58911.2294,11.0,70.875,22.89659,-2.4375,0.003260434
58911.2319,11.0625,70.5,22.43703,-2.6875,0.003255762
58911.2344,11.125,70.1875,21.99328,-2.75,0.003269778
58911.2369,11.125,70.0625,21.74427,-2.75,0.003300924
58911.2394,11.0625,69.6875,21.69221,-2.8125,0.003304038
58911.2419,11.0625,69.5625,21.69603,-2.625,0.003282236
58911.2444,10.9375,69.125,21.58171,-2.5625,0.003285351
58911.2469,11.1875,69.0625,21.25802,-2.125,0.003311825
58911.2494,11.125,68.75,20.7701,-2.0625,0.003319611
58911.2519,11.125,68.625,20.26553,-2.4375,0.003310268
58911.2544,11.0,68.25,19.89831,-2.8125,0.003297809
58911.2569,11.1875,68.1875,19.73077,-2.9375,0.003299367
58911.2594,11.0,67.8125,19.69099,-2.9375,0.00333207
58911.2619,11.0625,67.75,19.60934,-2.75,0.003335184
58911.2644,11.1875,67.4375,19.31068,-2.625,0.00331494
58911.2669,11.125,67.4375,18.70893,-2.5625,0.00330871
58911.2694,11.125,67.0625,17.85171,-2.5625,0.00331494
58911.2719,11.125,66.875,16.89228,-2.9375,0.003336742
58911.2744,11.125,66.625,16.00762,-2.5625,0.003335184
58911.2769,11.125,66.5,15.30999,-2.5625,0.003327398
58911.2794,11.0625,66.4375,14.80032,-2.5625,0.003339856
58911.2819,11.125,66.1875,14.38655,-2.25,0.003363216
58911.2844,11.1875,66.0625,13.95242,-1.8125,0.003402148
58911.2869,11.0625,66.0,13.43518,-1.4375,0.003400591
58911.2894,11.125,65.5,12.86672,-1.8125,0.003392805
58911.2919,11.1875,65.5,12.35499,-1.875,0.003411492
58911.2944,11.0625,65.25,12.01636,-1.8125,0.003428622
58911.2969,11.1875,65.0,11.89761,-1.6875,0.003441081
58911.2994,11.0625,65.0625,11.93283,-1.625,0.003445753
58911.3019,11.125,64.8125,11.96276,-1.6875,0.003428622
58911.3044,11.0625,64.6875,11.80777,-1.75,0.003437966
58911.3069,10.9375,64.4375,11.35945,-1.1875,0.00346444
58911.3094,11.0625,64.25,10.64445,-1.75,0.003523618
58911.3119,11.0,64.1875,9.825799,-2.25,0.003227731
58911.3144,11.0625,64.0625,9.141101,-2.0625,0.00393786
58911.3169,11.125,63.9375,8.804546,-1.8125,0.002439737
58911.3194,11.1875,63.75,8.916212,-1.9375,-0.003576115
58911.3219,11.1875,63.625,9.421377,-1.9375,-0.003644636
58911.3244,11.0625,63.3125,10.13708,-2.0,-0.003819054
58911.3269,11.1875,63.375,10.83205,-1.875,-0.002549854
58911.3294,11.125,63.125,11.32276,-2.0625,0.003338299
58911.3319,11.125,63.1875,11.54228,-1.9375,0.003624842
58911.3344,11.0625,62.875,11.5536,-2.0625,0.003072001
58911.3369,11.1875,62.8125,11.50508,-2.1875,0.003271335
58911.3394,11.0625,62.6875,11.55224,-1.875,0.003209043
58911.3419,11.0,62.4375,11.78457,-1.6875,0.003226173
58911.3444,11.0625,62.4375,12.19132,-1.625,0.003246418
58911.3469,11.0625,62.25,12.67999,-1.8125,0.003243304
58911.3494,11.25,62.25,13.13472,-1.875,0.003226173
58911.3519,11.1875,62.1875,13.48292,-1.625,0.00321683
58911.3544,11.0625,62.0,13.73417,-1.6875,0.003243304
58911.3569,11.0,61.9375,13.97017,-1.375,0.003244861
58911.3594,11.125,61.5,14.28972,-1.8125,0.003230845
58911.3619,11.125,61.5,14.73674,-1.5625,0.003230845
58911.3644,11.0,61.375,15.25076,-1.625,0.00323396
58911.3669,11.0625,61.4375,15.67101,-1.6875,0.003255762
58911.3694,11.0625,61.25,15.79913,-1.4375,0.003258877
58911.3719,10.9375,61.1875,15.49526,-1.3125,0.003244861
58911.3744,10.9375,61.125,14.76033,-1.0625,0.003230845
58911.3769,10.9375,60.9375,13.75964,-1.625,0.003196585
58911.3794,11.0,60.8125,12.76721,-1.9375,0.003187241
58911.3819,10.8125,60.75,12.04989,-1.8125,0.003221501
58911.3844,10.9375,60.875,11.74328,-1.9375,0.003327398
58911.3869,11.0625,60.625,11.78146,-2.0625,0.003579681
58911.3894,10.8125,60.4375,11.92081,-2.0625,0.003922287
58911.3919,10.9375,60.5,11.8532,-1.75,0.003989251
58911.3944,10.6875,60.4375,11.35719,-1.8125,0.003481571
58911.3969,10.8125,60.3125,10.41207,-2.125,0.002816603
58911.3994,10.8125,60.25,9.213944,-1.9375,0.002618826
58911.4019,10.9375,60.25,8.080781,-2.25,0.002713822
58911.4044,10.8125,60.0,7.28905,-2.1875,0.002813489
58911.4069,10.8125,60.0,6.926872,-2.5,0.002903812
58911.4094,10.75,59.875,6.842474,-2.0,0.003000365
58911.4119,10.875,59.75,6.719714,-2.3125,0.003092246
58911.4144,11.0625,59.625,6.248031,-2.0625,0.003163881
58911.4169,10.8125,59.4375,5.299357,-2.1875,0.0032106
58911.4194,10.9375,59.4375,4.015401,-2.3125,0.00321683
58911.4219,10.75,59.3125,2.752205,-2.1875,0.003215272
58911.4244,10.6875,59.25,1.902785,-2.125,0.00329158
58911.4269,10.625,59.25,1.686266,-1.8125,0.003043969
58911.4294,10.8125,59.125,2.01575,-1.625,0.003800817
58911.4319,10.8125,59.0625,2.520511,-1.9375,0.00227622
58911.4344,10.6875,58.8125,2.72,-1.875,-0.00380971
58911.4369,10.6875,58.8125,2.268573,-2.1875,-0.003731845
58911.4394,10.625,58.5,1.145929,-2.25,-0.003805038
58911.4419,10.625,58.5625,-0.3070184,-1.9375,-0.002528052
58911.4444,10.6875,58.25,-1.529759,-2.25,0.003358544
58911.4469,10.5625,58.3125,-1.996268,-2.0625,0.003590582
58911.4494,10.8125,58.1875,-1.456648,-2.0,0.003040855
58911.4519,10.8125,58.1875,-0.04733338,-1.8125,0.003279122
58911.4544,10.5625,57.9375,1.783051,-1.9375,0.003212158
58911.4569,10.75,57.9375,3.493111,-2.1875,0.003212158
58911.4594,10.6875,57.6875,4.702838,-1.875,0.00321683
58911.4619,10.75,57.5625,5.359187,-2.1875,0.003227731
58911.4644,10.5,57.4375,5.739918,-2.25,0.003249533
58911.4669,10.75,57.5625,6.305625,-1.4375,0.003243304
58911.4694,10.8125,57.375,7.484696,-1.4375,0.003218387
58911.4719,10.75,57.1875,9.50101,-1.875,0.003224616
58911.4744,10.6875,57.125,12.32149,-2.1875,0.003235517
58911.4769,10.875,57.0,15.73069,-2.25,0.003230845
58911.4794,10.75,56.8125,19.47186,-2.5,0.003218387
58911.4819,10.6875,57.0,23.36751,-2.5,0.003221501
58911.4844,10.75,56.75,27.35569,-2.1875,0.003229288
58911.4869,10.75,56.75,31.43595,-1.75,0.003249533
58911.4894,10.6875,56.625,35.57522,-2.1875,0.003247976
58911.4919,10.5625,56.6875,39.64394,-2.1875,0.003221501
58911.4944,10.625,56.5,43.42978,-2.4375,0.003229288
58911.4969,10.6875,56.1875,46.72373,-2.0,0.003255762
58911.4994,10.625,56.1875,49.42466,-2.125,0.003271335
58911.5019,10.5625,56.0625,51.59538,-1.75,0.003257319
58911.5044,10.625,55.875,53.42854,-2.0,0.003240189
58911.5069,10.5,55.6875,55.13838,-1.8125,0.003254205
58911.5094,10.5625,55.625,56.83775,-2.125,0.003276007
58911.5119,10.375,55.375,58.47248,-2.125,0.003277564
58911.5144,10.375,55.5,59.85485,-1.9375,0.003268221
58911.5169,10.4375,55.1875,60.77933,-2.25,0.003260434
58911.5194,10.625,55.0625,61.1572,-2.3125,0.003272892
58911.5219,10.5625,55.0625,61.09482,-2.1875,0.003302481
58911.5244,10.4375,54.9375,60.86902,-2.8125,0.003305596
58911.5269,10.375,54.875,60.80949,-1.8125,0.003293137
58911.5294,10.4375,54.9375,61.1491,-2.1875,0.003290023
58911.5319,10.3125,54.6875,61.92038,-2.1875,0.003311825
58911.5344,10.4375,54.875,62.95044,-2.625,0.00333207
58911.5369,10.375,54.8125,63.95448,-2.4375,0.00331494
58911.5394,10.5,54.75,64.67835,-2.1875,0.003361659
58911.5419,10.4375,54.9375,65.01621,-2.125,0.003082902
58911.5444,10.4375,54.875,65.04821,-2.25,0.003889583
58911.5469,10.25,54.875,64.98616,-2.1875,0.002307366
58911.5494,10.375,55.0,65.06194,-2.125,-0.004021503
58911.5519,10.5,55.25,65.4191,-1.9375,-0.003882903
58911.5544,10.5,55.375,66.05959,-2.0625,-0.004007487
58911.5569,10.625,55.6875,66.86365,-2.0625,-0.002629276
58911.5594,10.4375,56.1875,67.66254,-2.3125,0.003609269
58911.5619,10.375,56.9375,68.3205,-2.375,0.00370115
58911.5644,10.4375,57.8125,68.78549,-2.3125,0.003056428
58911.5669,10.5625,58.625,69.09096,-2.3125,0.003325841
58911.5694,10.625,59.875,69.31877,-2.0625,0.003304038
58911.5719,10.5625,60.75,69.5507,-2.1875,0.003313382
58911.5744,10.625,61.875,69.83504,-2.375,0.003307153
58911.5769,10.5,62.8125,70.17975,-2.4375,0.003325841
58911.5794,10.5625,63.8125,70.56651,-2.3125,0.003342971
58911.5819,10.5625,64.9375,70.97007,-2.25,0.003380346
58911.5844,10.75,65.875,71.36907,-2.1875,0.003400591
58911.5869,10.6875,66.9375,71.74557,-1.75,0.003402148
58911.5894,10.5625,67.8125,72.07926,-1.875,0.003419279
58911.5919,10.875,69.0625,72.34559,-1.8125,0.003465998
58911.5944,10.625,69.9375,72.52206,-2.0,0.003515831
58911.5969,10.875,71.125,72.59924,-2.1875,0.003536076
58911.5994,10.75,72.25,72.58845,-2.25,0.00354542
58911.6019,10.875,73.375,72.51881,-2.3125,0.003584352
58911.6044,10.875,74.625,72.42472,-2.1875,0.003635743
58911.6069,10.9375,75.75,72.3301,-1.8125,0.003662218
58911.6094,10.8125,76.875,72.2369,-1.75,0.003677791
58911.6119,10.8125,77.875,72.12422,-2.1875,0.003663775
58911.6144,10.8125,79.125,71.95663,-2.0625,0.003659103
