Time (s),Venous (mmHg),FAP (mmHg),Arterial - Pigtail (mmHg),Swan (mmHg),EKG (mV)
60338.3144,11.8125,50.9375,21.3325,-2.8125,0.003079787
60338.3169,11.9375,50.5,20.1591,-2.5625,0.003067329
60338.3194,11.9375,50.25,18.68827,-2.5625,0.003070443
60338.3219,11.9375,49.875,17.40179,-3.0,0.003057985
60338.3244,12.0,49.625,16.74146,-2.75,0.003076673
60338.3269,11.9375,49.4375,16.89214,-2.5,0.003107819
60338.3294,12.0,49.125,17.67497,-3.1875,0.003082902
60338.3319,12.0,48.8125,18.61322,-2.8125,0.00305487
60338.3344,11.75,48.5625,19.14851,-2.5625,0.003059542
60338.3369,11.9375,48.25,18.90815,-3.0,0.00307823
60338.3394,12.0,48.1875,17.89175,-2.4375,0.003082902
60338.3419,11.9375,47.8125,16.48019,-2.3125,0.003076673
60338.3444,11.875,47.625,15.2573,-2.6875,0.003068886
60338.3469,11.875,47.4375,14.72786,-2.9375,0.003070443
60338.3494,11.875,47.25,15.0711,-3.0625,0.003064214
60338.3519,11.9375,46.9375,16.05335,-3.1875,0.003065771
60338.3544,11.875,46.75,17.14445,-3.5,0.003065771
60338.3569,11.8125,46.375,17.78013,-3.1875,0.003051756
60338.3594,11.875,46.25,17.63794,-3.0625,0.003053313
60338.3619,11.875,46.0,16.78726,-3.0,0.003081344
60338.3644,12.0,45.75,15.63944,-3.0,0.003121834
60338.3669,12.0,45.5625,14.72728,-3.0,0.003137407
60338.3694,11.8125,45.3125,14.43124,-3.5,0.003128063
60338.3719,11.9375,45.25,14.79534,-2.875,0.003154538
60338.3744,11.9375,45.0,15.52655,-3.0625,0.003190355
60338.3769,11.9375,44.75,16.1723,-2.8125,0.003204371
60338.3794,12.125,44.6875,16.3767,-3.0625,0.00321683
60338.3819,11.9375,44.625,16.07474,-2.8125,0.003204371
60338.3844,12.125,44.5,15.52008,-2.8125,0.003171668
60338.3869,12.0625,44.3125,15.134,-2.875,0.003185684
60338.3894,12.0625,44.125,15.26135,-2.8125,0.003174782
60338.3919,12.125,44.125,15.97104,-2.75,0.003156095
60338.3944,12.1875,43.75,17.0126,-2.5625,0.003117162
60338.3969,12.25,43.6875,17.9549,-2.5625,0.003100032
60338.3994,12.1875,43.5625,18.42869,-2.5625,0.003073558
60338.4019,12.1875,43.625,18.33732,-2.6875,0.003053313
60338.4044,12.0625,43.4375,17.915,-3.1875,0.003025282
60338.4069,12.0625,43.1875,17.59601,-3.125,0.003022167
60338.4094,11.9375,43.0625,17.76501,-2.9375,0.003025282
60338.4119,12.1875,42.8125,18.52751,-2.5625,0.003026839
60338.4144,12.0,42.75,19.63247,-2.5625,0.003012823
60338.4169,12.0625,42.5,20.59726,-2.8125,0.002984792
60338.4194,12.0,42.375,20.97268,-2.6875,0.002994136
60338.4219,11.9375,42.375,20.60402,-3.3125,0.003023724
60338.4244,12.0625,42.25,19.74039,-2.625,0.00302061
60338.4269,12.1875,41.9375,18.92288,-2.8125,0.003008151
60338.4294,12.0625,41.8125,18.70183,-2.4375,0.003005037
60338.4319,12.0625,41.6875,19.33083,-2.625,0.00302061
60338.4344,12.125,41.75,20.60347,-3.0625,0.00303774
60338.4369,12.25,41.5625,21.93054,-2.25,0.003042412
60338.4394,12.0625,41.4375,22.62693,-1.6875,0.003022167
60338.4419,12.0625,41.375,22.26628,-1.875,0.003012823
60338.4444,12.0625,41.375,20.91676,-2.5,0.003022167
60338.4469,11.9375,41.125,19.13016,-2.8125,0.00303774
60338.4494,11.9375,41.1875,17.67944,-2.6875,0.003034625
60338.4519,12.0625,41.0,17.17295,-2.625,0.003005037
60338.4544,12.125,41.125,17.74013,-3.1875,0.002945859
60338.4569,11.875,41.0,18.95227,-2.9375,0.002908484
60338.4594,12.0,40.8125,20.02198,-2.875,0.002896026
60338.4619,11.875,40.6875,20.18747,-2.6875,0.002860208
60338.4644,11.875,40.625,19.09,-2.4375,0.002805702
60338.4669,11.9375,40.625,16.95624,-2.1875,0.002857093
60338.4694,12.0,40.5625,14.49401,-2.125,0.002944302
60338.4719,11.8125,40.5,12.55243,-2.3125,0.002930286
60338.4744,11.8125,40.375,11.71347,-2.6875,0.002910041
60338.4769,12.0,40.375,12.01594,-3.125,0.002867994
60338.4794,11.75,40.3125,12.94474,-3.125,0.002810374
60338.4819,11.75,40.25,13.68771,-2.6875,0.002819718
60338.4844,11.75,40.1875,13.53226,-2.8125,0.00286488
60338.4869,11.8125,40.0625,12.20899,-3.3125,0.002908484
60338.4894,11.75,39.75,10.0192,-2.625,0.0029225
60338.4919,11.6875,39.6875,7.690316,-2.625,0.002934958
60338.4944,11.75,39.6875,6.033926,-2.375,0.002986349
60338.4969,11.6875,39.5625,5.571606,-2.5,0.003003479
60338.4994,11.5625,39.625,6.304073,-2.25,0.002958318
60338.5019,11.8125,39.625,7.725668,-2.3125,0.002955203
60338.5044,11.875,39.5,9.070511,-2.6875,0.002978563
60338.5069,11.8125,39.5625,9.666381,-2.375,0.002995693
60338.5094,11.625,39.5625,9.234476,-2.375,0.002981677
60338.5119,11.9375,39.5,8.00143,-2.5625,0.002977005
60338.5144,11.625,39.375,6.583341,-2.6875,0.002973891
60338.5169,11.75,39.0625,5.704445,-2.4375,0.002966104
60338.5194,11.8125,39.125,5.882962,-2.5625,0.002992578
60338.5219,11.8125,39.125,7.224316,-2.8125,0.002984792
60338.5244,11.6875,38.9375,9.40478,-3.25,0.002948974
60338.5269,11.75,38.875,11.83987,-3.3125,0.002947417
60338.5294,11.8125,38.875,13.95121,-3.5,0.002986349
60338.5319,11.6875,38.9375,15.40884,-3.25,0.002994136
60338.5344,11.6875,38.6875,16.24562,-2.875,0.00296299
60338.5369,11.8125,38.5625,16.80459,-2.625,0.00296299
60338.5394,11.5625,38.6875,17.55675,-2.875,0.002952089
60338.5419,11.5,38.4375,18.87844,-2.4375,0.002994136
60338.5444,11.6875,38.5625,20.89043,-2.75,0.003001922
60338.5469,11.625,38.5,23.42432,-2.625,0.002964547
60338.5494,11.75,38.5,26.12026,-2.6875,0.002972333
60338.5519,11.8125,38.5,28.60074,-2.8125,0.002972333
60338.5544,11.8125,38.4375,30.63524,-2.9375,0.002992578
60338.5569,11.6875,38.5,32.22214,-2.625,0.002972333
60338.5594,11.6875,38.4375,33.55764,-2.3125,0.002959875
60338.5619,11.8125,38.375,34.91702,-2.1875,0.002967662
60338.5644,11.75,38.1875,36.51122,-2.0625,0.002964547
60338.5669,11.625,38.375,38.38768,-2.375,0.002986349
60338.5694,11.75,38.3125,40.41971,-2.625,0.00296299
60338.5719,11.8125,38.125,42.38105,-2.875,0.002933401
60338.5744,11.75,37.9375,44.06175,-2.8125,0.002945859
60338.5769,11.75,38.0625,45.36553,-2.3125,0.002948974
60338.5794,11.75,38.0625,46.3433,-2.9375,0.002944302
60338.5819,11.875,38.0,47.15202,-2.5625,0.002931844
60338.5844,11.8125,38.0,47.96706,-2.25,0.002916271
60338.5869,12.0,38.0625,48.89684,-2.5,0.002927172
60338.5894,11.8125,37.875,49.94223,-2.375,0.002944302
60338.5919,11.875,37.875,51.01648,-2.9375,0.00293963
60338.5944,11.9375,37.6875,52.00751,-2.875,0.002920942
60338.5969,11.625,37.6875,52.84459,-2.875,0.002917828
60338.5994,11.8125,37.8125,53.53215,-2.5,0.002930286
60338.6019,11.75,37.6875,54.13557,-2.375,0.002936516
60338.6044,11.8125,37.75,54.73198,-2.6875,0.002936516
60338.6069,12.0,37.75,55.35785,-3.0625,0.002897583
60338.6094,12.0,37.9375,55.98542,-3.25,0.002888239
60338.6119,11.875,37.8125,56.54087,-3.125,0.002900698
60338.6144,12.0625,37.75,56.95208,-2.625,0.002920942
60338.6169,12.0,38.0,57.19615,-2.5625,0.002919385
60338.6194,11.9375,38.125,57.31707,-2.8125,0.002878895
60338.6219,11.9375,38.0625,57.4026,-2.6875,0.002872666
60338.6244,12.0625,38.3125,57.53239,-2.6875,0.002894468
60338.6269,12.0625,38.75,57.72754,-2.75,0.002908484
60338.6294,12.125,38.875,57.93164,-2.3125,0.002905369
60338.6319,12.125,39.625,58.03603,-2.4375,0.002867994
60338.6344,12.3125,40.1875,57.93724,-2.8125,0.00285865
60338.6369,12.1875,40.9375,57.59567,-2.875,0.002875781
60338.6394,12.4375,41.75,57.06364,-2.6875,0.002886682
60338.6419,12.1875,42.6875,56.46707,-3.0,0.002888239
60338.6444,12.25,43.75,55.94912,-2.9375,0.002878895
60338.6469,12.3125,44.5625,55.60395,-2.75,0.002902255
60338.6494,12.375,45.25,55.43441,-2.4375,0.002911599
60338.6519,12.375,46.25,55.35425,-2.75,0.002916271
60338.6544,12.4375,47.25,55.23314,-2.625,0.002920942
60338.6569,12.1875,48.0,54.96099,-3.4375,0.002919385
60338.6594,12.375,48.5,54.49881,-3.625,0.002952089
60338.6619,12.4375,49.125,53.89307,-3.25,0.002983235
60338.6644,12.5,49.9375,53.24869,-3.5,0.002991021
60338.6669,12.5,50.6875,52.67582,-3.25,0.002994136
60338.6694,12.4375,51.125,52.23841,-3.3125,0.00302061
60338.6719,12.4375,52.0,51.92825,-3.25,0.003079787
60338.6744,12.5625,52.625,51.67472,-2.9375,0.003103147
60338.6769,12.375,53.375,51.38225,-2.5625,0.003120277
60338.6794,12.4375,54.25,50.97512,-2.4375,0.00311249
60338.6819,12.3125,55.125,50.42884,-2.5625,0.003140522
60338.6844,12.1875,56.0,49.77648,-2.3125,0.003184126
60338.6869,12.375,56.8125,49.09068,-2.0,0.003185684
60338.6894,12.5,57.75,48.45289,-2.1875,0.003174782
60338.6919,12.4375,58.375,47.92482,-2.0625,0.003159209
60338.6944,12.4375,59.1875,47.53274,-2.5625,0.003159209
60338.6969,12.4375,60.125,47.26747,-2.375,0.003166996
60338.6994,12.3125,60.6875,47.09544,-2.4375,0.003143636
60338.7019,12.375,61.5625,46.97318,-2.3125,0.003117162
60338.7044,12.3125,62.1875,46.85853,-2.3125,0.003087574
60338.7069,12.4375,62.8125,46.71698,-2.375,0.003082902
60338.7094,12.375,63.5625,46.52302,-2.625,0.003081344
60338.7119,12.5,64.125,46.25912,-2.4375,0.003070443
60338.7144,12.4375,64.6875,45.91519,-2.625,0.003057985
60338.7169,12.5,65.25,45.48817,-2.6875,0.003034625
60338.7194,12.4375,65.875,44.98058,-2.5,0.003043969
60338.7219,12.4375,66.25,44.3984,-2.625,0.003053313
60338.7244,12.5625,66.75,43.74784,-2.5,0.003047084
60338.7269,12.4375,67.25,43.03282,-2.625,0.003042412
60338.7294,12.5625,67.625,42.25355,-2.4375,0.003029954
60338.7319,12.625,67.9375,41.40434,-2.5,0.003045527
60338.7344,12.4375,68.0625,40.46824,-2.75,0.003039297
60338.7369,12.5625,68.6875,39.40789,-2.6875,0.003029954
60338.7394,12.625,68.9375,38.15523,-2.625,0.003034625
60338.7419,12.5,69.125,36.60899,-3.0625,0.003028396
60338.7444,12.6875,69.375,34.65038,-3.25,0.003033068
60338.7469,12.6875,69.375,32.18148,-3.0625,0.003026839
60338.7494,12.8125,69.625,29.18045,-2.75,0.003029954
60338.7519,12.75,69.6875,25.75538,-2.8125,0.003028396
60338.7544,12.6875,69.75,22.17086,-2.9375,0.00302061
60338.7569,12.8125,69.875,18.82512,-3.3125,0.003047084
60338.7594,12.8125,70.0625,16.17145,-3.0,0.00303774
60338.7619,12.8125,70.125,14.60118,-3.1875,0.003022167
60338.7644,12.6875,70.0625,14.32529,-3.6875,0.003029954
60338.7669,12.8125,70.1875,15.29908,-3.5625,0.003025282
60338.7694,12.75,70.125,17.22253,-3.1875,0.003050198
60338.7719,12.6875,70.0625,19.62143,-2.75,0.003042412
60338.7744,12.8125,69.875,21.98269,-3.25,0.003003479
60338.7769,12.8125,69.75,23.89517,-3.5,0.003009709
60338.7794,12.6875,69.5,25.1449,-3.0625,0.003029954
60338.7819,12.6875,69.3125,25.73287,-3.375,0.003043969
60338.7844,12.8125,69.25,25.8174,-3.0625,0.003019052
60338.7869,12.875,68.9375,25.61348,-2.9375,0.00299725
60338.7894,12.8125,68.625,25.29648,-2.8125,0.003008151
60338.7919,12.8125,68.1875,24.94947,-3.0625,0.003033068
60338.7944,12.75,67.9375,24.56787,-3.0625,0.003045527
60338.7969,12.9375,67.625,24.10664,-2.8125,0.003023724
60338.7994,12.8125,67.25,23.53629,-3.0625,0.00302061
60338.8019,12.8125,66.875,22.87545,-2.5,0.003011266
60338.8044,12.8125,66.4375,22.18529,-2.75,0.003023724
60338.8069,12.8125,66.0,21.53521,-2.8125,0.003031511
60338.8094,12.6875,65.625,20.96489,-2.625,0.003025282
60338.8119,13.0625,65.1875,20.46754,-2.3125,0.003026839
60338.8144,12.8125,64.6875,20.0035,-2.5625,0.003023724
60338.8169,12.9375,64.3125,19.53375,-2.5,0.003040855
60338.8194,12.875,63.625,19.04988,-2.625,0.003026839
60338.8219,13.0,62.9375,18.58076,-3.1875,0.003019052
60338.8244,13.0,62.5625,18.17001,-2.875,0.003040855
60338.8269,12.9375,61.875,17.84118,-2.6875,0.003051756
60338.8294,12.9375,61.1875,17.57318,-3.0625,0.003053313
60338.8319,13.0,60.625,17.30606,-3.5625,0.003022167
60338.8344,12.9375,60.0,16.97503,-3.1875,0.003003479
60338.8369,13.0625,59.4375,16.55356,-3.1875,0.003036183
60338.8394,13.0,58.75,16.07745,-3.25,0.003068886
60338.8419,12.9375,58.3125,15.63078,-3.1875,0.003075115
60338.8444,12.9375,57.75,15.29659,-3.125,0.003051756
60338.8469,12.8125,57.1875,15.10278,-2.75,0.003036183
60338.8494,12.9375,56.75,14.99442,-2.6875,0.003057985
60338.8519,12.875,56.375,14.85547,-2.6875,0.003064214
60338.8544,13.0,55.9375,14.57304,-2.75,0.003059542
60338.8569,12.875,55.5625,14.10924,-2.8125,0.003047084
60338.8594,12.8125,55.125,13.53845,-3.0625,0.003036183
60338.8619,13.125,54.8125,13.02292,-3.0625,0.003036183
60338.8644,13.0,54.4375,12.73197,-3.125,0.003065771
60338.8669,12.9375,54.0625,12.74556,-3.3125,0.003072001
60338.8694,12.8125,53.6875,12.99524,-3.25,0.00303774
60338.8719,13.0625,53.25,13.28027,-2.9375,0.003045527
60338.8744,13.0,53.0,13.35764,-3.4375,0.00303774
60338.8769,13.0625,52.625,13.06439,-3.4375,0.003062657
60338.8794,13.1875,52.375,12.40887,-3.9375,0.003065771
60338.8819,13.0,52.0625,11.58003,-3.1875,0.003025282
60338.8844,13.125,51.5,10.86389,-3.6875,0.00302061
60338.8869,12.9375,51.3125,10.50448,-3.125,0.003045527
60338.8894,13.0625,51.125,10.57749,-3.4375,0.003051756
60338.8919,13.0625,50.625,10.94024,-3.1875,0.00305487
60338.8944,13.125,50.3125,11.28901,-3.1875,0.003034625
60338.8969,13.125,50.0,11.29672,-2.875,0.003036183
60338.8994,13.125,49.625,10.76712,-3.1875,0.003031511
60338.9019,13.125,49.5,9.731381,-3.375,0.003034625
60338.9044,13.0625,49.3125,8.440719,-3.375,0.003019052
60338.9069,13.0625,48.875,7.258835,-3.5625,0.003015938
60338.9094,13.125,48.6875,6.504395,-3.4375,0.003042412
60338.9119,13.1875,48.5,6.316401,-3.4375,0.003059542
60338.9144,13.1875,48.25,6.602176,-2.9375,0.0030611
60338.9169,13.1875,47.875,7.087971,-3.125,0.003009709
60338.9194,13.0625,47.75,7.444834,-3.0625,0.00299725
60338.9219,13.0,47.625,7.430121,-3.125,0.003025282
60338.9244,13.1875,47.3125,6.981904,-3.0,0.003048641
60338.9269,13.1875,47.1875,6.228913,-2.4375,0.003047084
60338.9294,13.25,46.875,5.418285,-2.875,0.003040855
60338.9319,13.1875,46.875,4.79902,-2.6875,0.003068886
60338.9344,13.125,46.6875,4.515693,-2.6875,0.003098475
60338.9369,13.3125,46.5625,4.557753,-2.8125,0.003109376
60338.9394,13.3125,46.125,4.781966,-2.4375,0.003126506
60338.9419,13.25,45.9375,4.991801,-2.875,0.003117162
60338.9444,13.375,45.9375,5.033665,-2.5625,0.003124949
60338.9469,13.3125,45.8125,4.865184,-3.0625,0.003163881
60338.9494,13.25,45.625,4.565435,-3.1875,0.003181012
60338.9519,13.1875,45.5,4.285131,-2.375,0.003184126
60338.9544,13.5625,45.5,4.163013,-2.5,0.003160767
60338.9569,13.375,45.1875,4.250239,-2.1875,0.00313585
60338.9594,13.4375,45.0625,4.481563,-2.6875,0.003145194
60338.9619,13.375,44.875,4.709333,-2.4375,0.00313585
60338.9644,13.375,44.8125,4.785026,-2.375,0.003124949
60338.9669,13.4375,44.625,4.647094,-2.1875,0.003089131
60338.9694,13.4375,44.4375,4.368652,-2.5625,0.003036183
60338.9719,13.4375,44.375,4.134263,-2.8125,0.003022167
60338.9744,13.5,44.1875,4.150677,-2.4375,0.003028396
60338.9769,13.375,44.0625,4.532524,-2.5,0.003014381
60338.9794,13.5,43.8125,5.222593,-3.0,0.002991021
60338.9819,13.3125,43.8125,5.99453,-2.5625,0.002984792
60338.9844,13.25,43.75,6.547179,-2.9375,0.002998808
60338.9869,13.4375,43.6875,6.651783,-3.5,0.003005037
60338.9894,13.5,43.5,6.279874,-3.6875,0.00299725
60338.9919,13.6875,43.4375,5.641934,-3.6875,0.003005037
60338.9944,13.5625,43.3125,5.105763,-3.4375,0.003022167
60338.9969,13.5,43.0625,5.024211,-3.0625,0.003009709
60338.9994,13.375,42.9375,5.552077,-2.875,0.003003479
60339.0019,13.3125,42.75,6.54626,-3.0625,0.002991021
60339.0044,13.5,42.625,7.608095,-3.125,0.002989464
60339.0069,13.75,42.625,8.258549,-3.375,0.003009709
60339.0094,13.6875,42.375,8.167462,-3.125,0.003011266
60339.0119,13.625,42.375,7.32498,-3.0,0.003006594
60339.0144,13.5,42.4375,6.064485,-2.625,0.002989464
60339.0169,13.5625,42.375,4.917677,-3.125,0.002984792
60339.0194,13.5,42.1875,4.36485,-3.1875,0.003006594
60339.0219,13.5,42.0,4.599435,-3.1875,0.002961432
60339.0244,13.5625,42.125,5.42488,-3.8125,0.00288201
60339.0269,13.5625,42.0,6.338487,-3.125,0.002839963
60339.0294,13.625,41.875,6.767201,-2.6875,0.002849307
60339.0319,13.5,41.8125,6.342283,-2.5,0.002866437
60339.0344,13.5625,41.6875,5.079988,-3.0,0.002880453
60339.0369,13.6875,41.625,3.377952,-3.0,0.002930286
60339.0394,13.75,41.6875,1.827154,-3.125,0.002897583
60339.0419,13.6875,41.5625,0.929004,-2.8125,0.002891354
60339.0444,13.8125,41.5625,0.8547231,-2.8125,0.002891354
60339.0469,13.5625,41.375,1.364631,-2.6875,0.002815046
60339.0494,13.75,41.3125,1.926308,-2.6875,0.002782343
60339.0519,13.6875,41.25,1.975163,-2.8125,0.002805702
60339.0544,13.625,41.25,1.193284,-2.8125,0.002863322
60339.0569,13.8125,41.3125,-0.3277493,-2.75,0.002927172
60339.0594,13.5625,41.1875,-2.120221,-2.6875,0.002950531
60339.0619,13.75,41.0,-3.553595,-2.75,0.002958318
60339.0644,13.8125,41.0,-4.128824,-2.9375,0.00295676
60339.0669,13.9375,40.875,-3.716787,-3.0625,0.002966104
60339.0694,13.9375,40.9375,-2.63011,-2.375,0.002959875
60339.0719,14.0,40.875,-1.492399,-2.5,0.00296299
60339.0744,13.9375,40.875,-0.9638132,-2.25,0.00295676
60339.0769,14.0625,40.75,-1.445282,-2.25,0.002955203
60339.0794,14.0,40.8125,-2.893309,-2.3125,0.002973891
60339.0819,14.0625,40.5625,-4.828346,-2.5,0.002970776
60339.0844,13.875,40.625,-6.531321,-2.625,0.002945859
60339.0869,14.0625,40.375,-7.343486,-2.3125,0.00295676
60339.0894,14.0625,40.3125,-6.935673,-2.4375,0.002975448
60339.0919,14.0625,40.375,-5.431579,-2.5625,0.002991021
60339.0944,14.1875,40.4375,-3.334605,-2.5,0.002969219
60339.0969,14.0,40.3125,-1.293799,-2.6875,0.002948974
60339.0994,13.9375,40.125,0.1847269,-2.5,0.002959875
60339.1019,14.0,40.1875,0.9514856,-2.75,0.002981677
60339.1044,14.0625,40.125,1.260729,-2.375,0.003001922
60339.1069,14.1875,40.0625,1.635562,-2.4375,0.002969219
60339.1094,14.125,39.9375,2.616974,-3.0,0.002958318
60339.1119,14.1875,39.6875,4.513843,-3.1875,0.002970776
60339.1144,14.1875,39.875,7.267505,-2.9375,0.002981677
60339.1169,14.125,39.875,10.48818,-3.3125,0.002994136
60339.1194,14.1875,39.8125,13.64013,-3.5625,0.002958318
60339.1219,14.25,39.8125,16.28366,-3.5625,0.002945859
60339.1244,14.0625,39.6875,18.25826,-3.1875,0.002973891
60339.1269,14.25,39.625,19.72422,-3.5625,0.002998808
60339.1294,14.3125,39.5625,21.04966,-3.5,0.002989464
60339.1319,14.1875,39.75,22.60485,-3.5625,0.002953646
60339.1344,14.4375,39.625,24.56869,-3.5,0.002945859
60339.1369,14.3125,39.5625,26.84266,-3.375,0.00295676
60339.1394,14.3125,39.75,29.10989,-3.5625,0.002961432
60339.1419,14.3125,39.4375,31.00376,-3.875,0.00296299
60339.1444,14.25,39.5,32.29795,-3.6875,0.002948974
60339.1469,14.375,39.5,33.02135,-3.6875,0.002955203
60339.1494,14.1875,39.5,33.44408,-3.8125,0.002958318
60339.1519,14.25,39.5,33.94574,-3.4375,0.002948974
60339.1544,14.1875,39.375,34.83573,-3.0625,0.002938073
60339.1569,14.1875,39.1875,36.21522,-2.6875,0.002928729
60339.1594,14.125,39.1875,37.94552,-3.25,0.002941187
60339.1619,14.25,39.0,39.73027,-3.125,0.002953646
60339.1644,14.1875,39.0625,41.26322,-3.1875,0.002944302
60339.1669,14.25,39.0,42.36564,-3.1875,0.002917828
60339.1694,14.1875,38.875,43.04887,-3.0,0.002938073
60339.1719,14.125,38.875,43.48014,-2.9375,0.002931844
60339.1744,14.375,39.0,43.87958,-3.0625,0.002924057
60339.1769,14.1875,38.875,44.4071,-3.0,0.002925614
60339.1794,14.3125,38.8125,45.09512,-3.375,0.002902255
60339.1819,14.1875,38.9375,45.8541,-3.1875,0.002902255
60339.1844,14.4375,39.125,46.53679,-3.3125,0.002917828
60339.1869,14.375,39.0625,47.0206,-3.5625,0.002914713
60339.1894,14.3125,39.1875,47.26374,-3.0625,0.002913156
60339.1919,14.375,39.5625,47.3111,-3.125,0.002883567
60339.1944,14.375,39.75,47.2555,-3.0,0.00288201
60339.1969,14.1875,40.1875,47.18194,-2.875,0.002903812
60339.1994,14.5,40.75,47.12678,-3.125,0.002920942
60339.2019,14.3125,41.5,47.07043,-3.1875,0.002903812
60339.2044,14.3125,42.625,46.96035,-3.1875,0.002871109
60339.2069,14.5,43.5,46.74646,-3.75,0.002885125
60339.2094,14.375,44.5,46.40791,-3.4375,0.002889796
60339.2119,14.4375,45.4375,45.95985,-3.0625,0.00289914
60339.2144,14.5625,46.4375,45.44107,-2.9375,0.002911599
60339.2169,14.4375,47.25,44.89424,-2.8125,0.002892911
60339.2194,14.5,48.125,44.3503,-2.875,0.002886682
60339.2219,14.5625,48.9375,43.82302,-3.0,0.002914713
60339.2244,14.75,49.6875,43.31193,-3.1875,0.002938073
60339.2269,14.75,50.5625,42.80713,-3.5,0.002950531
60339.2294,14.75,51.125,42.29334,-3.125,0.002950531
60339.2319,14.8125,51.75,41.75374,-2.9375,0.002981677
60339.2344,14.75,52.4375,41.17498,-3.125,0.003017495
60339.2369,14.8125,53.1875,40.55561,-2.875,0.003043969
60339.2394,14.6875,53.875,39.91379,-2.4375,0.003065771
60339.2419,14.75,54.75,39.28728,-2.3125,0.003089131
60339.2444,14.75,55.3125,38.7213,-2.25,0.003140522
60339.2469,14.6875,56.3125,38.24612,-2.375,0.003166996
60339.2494,14.625,57.0625,37.85526,-2.125,0.003173225
60339.2519,14.75,58.0625,37.4992,-2.0625,0.003166996
60339.2544,14.75,58.875,37.10215,-2.25,0.003181012
60339.2569,14.8125,59.8125,36.59801,-2.75,0.00321683
60339.2594,14.875,60.6875,35.96775,-2.5,0.003207486
60339.2619,14.875,61.4375,35.25728,-2.25,0.003188798
60339.2644,14.875,62.25,34.56261,-2.4375,0.003165439
60339.2669,14.9375,63.125,33.9872,-2.5,0.003163881
60339.2694,15.0,63.875,33.59305,-2.625,0.00317634
60339.2719,15.0,64.4375,33.37216,-2.375,0.003163881
60339.2744,15.125,65.25,33.25509,-2.4375,0.003134293
60339.2769,15.0625,65.75,33.15213,-2.1875,0.003100032
60339.2794,14.9375,66.4375,33.00367,-2.625,0.00311249
60339.2819,15.0625,67.25,32.80898,-2.9375,0.003134293
60339.2844,15.0,67.875,32.61414,-2.8125,0.003110933
60339.2869,15.0,68.0625,32.46604,-3.0,0.003092246
60339.2894,15.0,68.625,32.36029,-3.0,0.0030611
60339.2919,15.0625,69.0625,32.21711,-3.0,0.003070443
60339.2944,15.0,69.375,31.90573,-3.3125,0.003107819
60339.2969,15.0,69.8125,31.30915,-3.4375,0.003093803
60339.2994,15.125,70.1875,30.39363,-3.75,0.003075115
60339.3019,15.125,70.625,29.23953,-3.125,0.00305487
60339.3044,15.1875,70.875,28.0066,-3.0,0.003056428
60339.3069,15.0,71.1875,26.84282,-2.75,0.003075115
60339.3094,15.1875,71.4375,25.78068,-2.6875,0.003072001
60339.3119,15.1875,71.625,24.67939,-2.375,0.003057985
60339.3144,15.25,71.875,23.25473,-2.4375,0.003048641
60339.3169,15.1875,72.0625,21.19729,-2.0625,0.003070443
60339.3194,15.0625,71.9375,18.33302,-2.1875,0.0030611
60339.3219,15.125,72.1875,14.75272,-2.4375,0.003056428
60339.3244,15.125,72.125,10.8445,-2.5625,0.003059542
60339.3269,15.0625,72.25,7.204134,-1.9375,0.003053313
60339.3294,15.1875,72.3125,4.452808,-2.1875,0.003073558
60339.3319,15.125,72.3125,3.033765,-2.25,0.003064214
60339.3344,15.0625,72.3125,3.069954,-2.1875,0.00305487
60339.3369,15.125,72.1875,4.338236,-2.5,0.003053313
60339.3394,15.25,72.0,6.364545,-2.625,0.00305487
60339.3419,14.9375,71.9375,8.594256,-2.6875,0.003075115
60339.3444,15.0,71.9375,10.56529,-2.1875,0.003051756
60339.3469,14.875,71.8125,12.01882,-2.375,0.003029954
60339.3494,14.875,71.5625,12.9165,-2.375,0.003029954
60339.3519,15.0,71.375,13.37654,-2.625,0.003048641
60339.3544,14.9375,70.75,13.57242,-3.125,0.003073558
60339.3569,15.125,70.75,13.64449,-2.8125,0.003039297
60339.3594,15.0,70.5,13.65852,-2.6875,0.00302061
60339.3619,14.9375,70.25,13.61501,-2.5,0.003026839
60339.3644,14.9375,69.875,13.48879,-2.5625,0.003056428
60339.3669,14.9375,69.5625,13.26866,-2.4375,0.003072001
60339.3694,15.0625,69.125,12.97483,-2.4375,0.003053313
60339.3719,14.875,68.6875,12.65038,-2.625,0.00303774
60339.3744,14.9375,68.125,12.33829,-2.6875,0.00303774
60339.3769,15.0,67.8125,12.06247,-2.375,0.003064214
60339.3794,14.9375,67.25,11.82476,-2.1875,0.003079787
60339.3819,14.8125,66.625,11.61795,-2.0625,0.003056428
60339.3844,14.75,66.0,11.44343,-2.625,0.003056428
60339.3869,14.75,65.5,11.32016,-2.5625,0.0030611
60339.3894,14.75,65.0,11.27679,-2.9375,0.003073558
60339.3919,14.8125,64.4375,11.33068,-2.625,0.003086016
60339.3944,14.75,63.75,11.4667,-2.375,0.003065771
60339.3969,14.6875,62.9375,11.62984,-2.3125,0.003068886
60339.3994,14.8125,62.5,11.73957,-2.75,0.003067329
60339.4019,14.875,61.875,11.72133,-2.6875,0.003072001
60339.4044,14.75,61.25,11.54023,-2.4375,0.003073558
60339.4069,14.875,60.5,11.22026,-2.6875,0.003048641
60339.4094,14.875,59.875,10.83714,-2.0625,0.003079787
60339.4119,14.8125,59.625,10.48531,-2.375,0.003084459
60339.4144,14.9375,58.9375,10.23395,-2.3125,0.003079787
60339.4169,14.6875,58.375,10.09248,-2.1875,0.003073558
60339.4194,14.625,57.9375,10.00537,-2.625,0.0030611
60339.4219,14.5625,57.5,9.879566,-2.3125,0.00307823
60339.4244,14.75,57.0,9.634981,-2.375,0.003090688
60339.4269,14.6875,56.75,9.253511,-2.25,0.003086016
60339.4294,14.625,56.3125,8.80109,-2.375,0.003070443
60339.4319,14.75,56.125,8.407469,-2.3125,0.003067329
60339.4344,14.625,55.625,8.208691,-2.1875,0.003082902
60339.4369,14.75,55.375,8.279196,-2.4375,0.003098475
60339.4394,14.5625,54.875,8.587407,-2.125,0.003100032
60339.4419,14.4375,54.625,8.99933,-2.0625,0.003068886
60339.4444,14.5,54.0,9.334158,-2.5,0.003067329
60339.4469,14.5,53.6875,9.449018,-2.625,0.003076673
60339.4494,14.6875,53.4375,9.309691,-2.5625,0.003086016
60339.4519,14.5,53.125,9.010261,-2.4375,0.00309536
60339.4544,14.625,52.625,8.727949,-2.625,0.0030611
60339.4569,14.5625,52.3125,8.633089,-2.5,0.003048641
60339.4594,14.5,51.875,8.797523,-2.75,0.003065771
60339.4619,14.3125,51.5625,9.150518,-2.75,0.003086016
60339.4644,14.4375,51.25,9.507178,-2.5625,0.003084459
60339.4669,14.4375,51.0625,9.657931,-2.8125,0.003050198
60339.4694,14.3125,50.5625,9.474308,-2.75,0.003047084
60339.4719,14.5625,50.375,8.973986,-2.25,0.003043969
60339.4744,14.3125,49.875,8.312314,-2.3125,0.003056428
60339.4769,14.3125,49.5625,7.7017,-2.625,0.003065771
60339.4794,14.1875,49.5,7.30254,-2.6875,0.00303774
60339.4819,14.1875,49.1875,7.144653,-2.75,0.003039297
60339.4844,14.25,49.125,7.121497,-2.375,0.003051756
60339.4869,14.25,48.75,7.05982,-2.625,0.00303774
60339.4894,14.1875,48.5625,6.824705,-3.0,0.003022167
60339.4919,14.125,48.375,6.3992,-2.6875,0.003019052
60339.4944,14.1875,48.125,5.893269,-2.0625,0.00303774
60339.4969,14.4375,48.0,5.477237,-2.3125,0.003056428
60339.4994,14.0625,47.625,5.279005,-2.3125,0.003062657
60339.5019,14.3125,47.4375,5.306089,-1.8125,0.003051756
60339.5044,14.3125,47.3125,5.439845,-2.3125,0.003072001
60339.5069,14.25,47.0625,5.506399,-1.8125,0.003101589
60339.5094,14.25,46.9375,5.38308,-1.8125,0.003128063
60339.5119,14.375,46.9375,5.076309,-2.125,0.003140522
60339.5144,14.375,46.625,4.722935,-2.375,0.003103147
60339.5169,14.375,46.5,4.511516,-2.25,0.003129621
60339.5194,14.3125,46.3125,4.568671,-2.25,0.003166996
60339.5219,14.1875,46.0625,4.878528,-2.0625,0.003170111
60339.5244,14.0625,45.875,5.285129,-2.1875,0.003165439
60339.5269,14.1875,45.6875,5.579501,-2.5625,0.003146751
60339.5294,14.125,45.6875,5.622301,-2.4375,0.003128063
60339.5319,14.125,45.3125,5.429273,-2.1875,0.003137407
60339.5344,14.0625,45.3125,5.167427,-1.9375,0.003120277
60339.5369,14.125,45.125,5.061166,-2.6875,0.003082902
60339.5394,14.0625,44.9375,5.262245,-2.125,0.003031511
60339.5419,14.1875,44.75,5.760174,-2.4375,0.003015938
60339.5444,14.1875,44.625,6.387522,-2.5625,0.003039297
60339.5469,14.0625,44.5625,6.91842,-2.3125,0.00303774
60339.5494,14.125,44.375,7.202653,-2.4375,0.003017495
60339.5519,14.0,44.25,7.254099,-2.6875,0.003000365
60339.5544,13.9375,44.0625,7.238625,-2.375,0.00302061
60339.5569,14.0,44.0,7.367165,-2.0625,0.003029954
60339.5594,13.9375,43.75,7.758294,-2.5625,0.003036183
60339.5619,13.75,43.5625,8.35608,-2.4375,0.003017495
60339.5644,13.75,43.5,8.957511,-2.25,0.00299725
60339.5669,13.875,43.375,9.337724,-2.8125,0.003014381
60339.5694,13.9375,43.25,9.398282,-2.8125,0.003015938
60339.5719,14.0,43.125,9.245228,-3.1875,0.003014381
60339.5744,14.0625,43.125,9.140342,-2.8125,0.003011266
60339.5769,14.0625,42.875,9.345185,-2.5625,0.002998808
60339.5794,13.9375,42.75,9.946516,-2.5625,0.003009709
60339.5819,13.9375,42.625,10.76978,-2.125,0.003028396
60339.5844,13.75,42.5,11.4438,-2.125,0.003023724
60339.5869,13.875,42.375,11.59271,-2.375,0.003009709
60339.5894,13.6875,42.3125,11.05326,-2.4375,0.003003479
60339.5919,13.875,42.1875,9.991847,-2.4375,0.003000365
60339.5944,13.8125,42.125,8.844868,-2.625,0.002920942
60339.5969,13.8125,42.0625,8.102571,-2.6875,0.002869552
60339.5994,13.875,42.0625,8.048458,-2.25,0.002861765
60339.6019,13.75,41.9375,8.597647,-1.9375,0.002857093
60339.6044,13.8125,41.8125,9.327335,-1.6875,0.0029225
60339.6069,13.6875,41.8125,9.6918,-2.3125,0.002977005
60339.6094,13.75,41.5625,9.308173,-2.25,0.002910041
60339.6119,13.6875,41.5625,8.158253,-2.6875,0.002888239
60339.6144,13.75,41.5,6.595356,-2.5625,0.002900698
60339.6169,13.8125,41.625,5.150465,-2.3125,0.00284152
60339.6194,13.6875,41.5,4.245719,-2.0,0.002805702
60339.6219,13.75,41.25,3.974721,-1.875,0.002808817
60339.6244,13.75,41.25,4.071733,-2.25,0.002857093
60339.6269,13.75,41.25,4.085623,-2.5625,0.002934958
60339.6294,13.75,41.125,3.658681,-2.5625,0.002969219
60339.6319,13.75,41.125,2.748257,-2.625,0.002972333
60339.6344,13.8125,41.0,1.660966,-2.5,0.002966104
60339.6369,13.6875,40.9375,0.8756455,-2.5,0.002961432
60339.6394,13.875,41.0625,0.753301,-2.4375,0.002970776
60339.6419,13.75,40.9375,1.300857,-2.6875,0.002977005
60339.6444,13.8125,40.875,2.129476,-2.6875,0.002967662
60339.6469,13.8125,40.8125,2.644979,-2.8125,0.002964547
60339.6494,13.6875,40.625,2.371525,-2.4375,0.00296299
60339.6519,13.875,40.75,1.236028,-2.5,0.002975448
60339.6544,13.9375,40.5625,-0.3466809,-2.6875,0.002975448
60339.6569,13.8125,40.4375,-1.644564,-2.6875,0.002961432
60339.6594,13.75,40.375,-1.953178,-2.6875,0.002961432
60339.6619,13.8125,40.25,-0.9388666,-2.1875,0.00298012
60339.6644,13.6875,40.125,1.197551,-2.4375,0.002991021
60339.6669,13.6875,40.0625,3.821194,-2.0625,0.002978563
60339.6694,13.625,40.0625,6.175969,-2.0,0.00295676
60339.6719,13.625,39.875,7.748981,-2.4375,0.002967662
60339.6744,13.5625,39.875,8.501808,-2.4375,0.002972333
60339.6769,13.5,39.875,8.857949,-2.4375,0.002975448
60339.6794,13.625,39.6875,9.463879,-2.5,0.002973891
60339.6819,13.625,39.6875,10.85435,-2.75,0.002958318
60339.6844,13.8125,39.75,13.19481,-2.6875,0.002955203
60339.6869,13.625,39.6875,16.22457,-2.5,0.002978563
60339.6894,13.625,39.75,19.41433,-2.5625,0.002972333
60339.6919,13.6875,39.5625,22.24207,-2.6875,0.002936516
60339.6944,13.5,39.6875,24.43753,-2.125,0.002927172
60339.6969,13.5625,39.4375,26.07415,-2.3125,0.002952089
60339.6994,13.6875,39.3125,27.47571,-2.0625,0.002975448
60339.7019,13.5625,39.3125,29.0041,-2.0625,0.002972333
60339.7044,13.5,39.375,30.85121,-2.0,0.002930286
60339.7069,13.5,39.1875,32.94515,-2.375,0.002928729
60339.7094,13.375,39.1875,35.0113,-2.9375,0.002925614
60339.7119,13.3125,39.0625,36.7425,-2.375,0.002950531
60339.7144,13.5625,39.1875,37.97775,-2.4375,0.00295676
60339.7169,13.5625,39.0,38.79152,-2.75,0.002936516
60339.7194,13.5,39.125,39.45187,-2.625,0.002927172
60339.7219,13.5,38.9375,40.27674,-2.4375,0.002930286
60339.7244,13.4375,39.0,41.47108,-2.5,0.002933401
60339.7269,13.375,38.8125,43.03152,-2.5,0.002938073
60339.7294,13.25,38.75,44.76366,-2.75,0.002920942
60339.7319,13.25,38.6875,46.39534,-3.0625,0.002913156
60339.7344,13.25,38.375,47.71998,-2.875,0.002914713
60339.7369,13.3125,38.5,48.69493,-2.5,0.002928729
60339.7394,13.375,38.5,49.44818,-2.8125,0.002902255
60339.7419,13.3125,38.375,50.19771,-2.75,0.002883567
60339.7444,13.25,38.375,51.13121,-2.375,0.002892911
60339.7469,13.125,38.25,52.31011,-2.625,0.002894468
60339.7494,13.0625,38.375,53.64341,-2.875,0.002891354
60339.7519,13.1875,38.3125,54.93803,-2.75,0.002875781
60339.7544,13.0625,38.375,55.99419,-2.5625,0.002886682
60339.7569,13.1875,38.4375,56.6956,-2.0625,0.002878895
60339.7594,13.0,38.625,57.05216,-2.5625,0.002886682
60339.7619,13.0625,38.6875,57.18026,-2.8125,0.002878895
60339.7644,13.0625,39.0625,57.23738,-2.875,0.002846192
60339.7669,13.0625,39.3125,57.34685,-2.5625,0.002866437
60339.7694,12.9375,39.75,57.54885,-2.6875,0.002874223
60339.7719,13.0,40.5,57.79643,-3.375,0.002866437
60339.7744,13.0,41.5,57.99221,-3.3125,0.002877338
60339.7769,13.0,42.5,58.04308,-3.0,0.002861765
60339.7794,13.1875,43.5625,57.90552,-3.0625,0.002860208
60339.7819,13.0625,44.4375,57.6019,-3.125,0.002888239
60339.7844,13.0,45.3125,57.20455,-2.9375,0.002891354
60339.7869,13.0,46.375,56.79896,-3.1875,0.002880453
60339.7894,13.0,47.1875,56.44622,-3.0625,0.002852421
60339.7919,13.1875,47.8125,56.1616,-2.8125,0.002863322
60339.7944,13.125,48.6875,55.91712,-2.4375,0.002905369
60339.7969,13.0625,49.375,55.66431,-2.1875,0.002930286
60339.7994,13.3125,50.0,55.36391,-2.1875,0.002942745
60339.8019,13.0625,50.6875,55.00711,-2.4375,0.002942745
60339.8044,13.1875,51.1875,54.61839,-2.1875,0.00296299
60339.8069,13.0625,51.75,54.23901,-2.4375,0.003015938
60339.8094,13.1875,52.5625,53.90114,-2.5,0.003059542
60339.8119,13.125,53.3125,53.60556,-2.5,0.003079787
60339.8144,13.1875,54.125,53.31532,-2.6875,0.003090688
60339.8169,13.125,55.125,52.96978,-2.5,0.00311249
60339.8194,13.0,55.875,52.51349,-2.3125,0.003151423
60339.8219,13.0625,56.75,51.92646,-2.5,0.003174782
60339.8244,12.9375,57.5625,51.24018,-2.5625,0.003177897
60339.8269,12.9375,58.4375,50.53077,-2.25,0.003177897
60339.8294,13.0,59.1875,49.89149,-2.1875,0.003191913
60339.8319,13.0,59.9375,49.39542,-2.125,0.003184126
60339.8344,13.0,60.6875,49.06671,-2.0,0.003145194
60339.8369,13.25,61.4375,48.87463,-2.375,0.003128063
60339.8394,13.0625,62.375,48.75285,-2.5,0.00311872
60339.8419,13.0625,63.0,48.63387,-2.4375,0.003138965
60339.8444,13.0,63.75,48.481,-2.3125,0.003117162
60339.8469,13.0,64.375,48.30083,-2.3125,0.003098475
60339.8494,13.0625,64.875,48.12899,-2.5625,0.0030611
60339.8519,13.0625,65.4375,47.99746,-3.25,0.003045527
60339.8544,13.125,65.875,47.9008,-2.8125,0.003081344
60339.8569,13.3125,66.625,47.78048,-3.1875,0.003062657
60339.8594,13.125,67.0,47.54071,-2.8125,0.003034625
60339.8619,13.0625,67.5625,47.09054,-2.75,0.003026839
60339.8644,13.0,67.9375,46.39141,-2.625,0.003036183
60339.8669,13.1875,68.25,45.48499,-3.0625,0.003062657
60339.8694,12.9375,68.6875,44.48125,-3.0625,0.003045527
60339.8719,13.125,69.125,43.50593,-3.0625,0.003017495
60339.8744,13.125,69.375,42.62688,-3.3125,0.003012823
60339.8769,13.1875,69.5,41.79328,-3.0625,0.003047084
60339.8794,12.9375,69.9375,40.82127,-2.9375,0.003064214
60339.8819,13.125,70.1875,39.44114,-2.8125,0.003053313
60339.8844,13.125,70.3125,37.39617,-2.75,0.003022167
60339.8869,13.125,70.4375,34.55998,-2.8125,0.002998808
60339.8894,12.9375,70.75,31.0254,-2.9375,0.00302061
60339.8919,13.25,70.8125,27.12552,-2.75,0.003026839
60339.8944,13.0625,70.875,23.37155,-2.375,0.003026839
60339.8969,13.125,71.125,20.32307,-2.8125,0.003028396
60339.8994,13.25,71.0625,18.43299,-2.5625,0.003015938
60339.9019,13.1875,71.125,17.92006,-2.75,0.003033068
60339.9044,13.1875,70.9375,18.71213,-2.375,0.003033068
60339.9069,13.0,70.8125,20.47825,-2.125,0.003023724
60339.9094,13.0625,70.6875,22.73538,-1.625,0.003022167
60339.9119,13.0,70.625,24.99047,-2.25,0.003017495
60339.9144,13.125,70.625,26.8687,-2.375,0.003039297
60339.9169,13.0625,70.375,28.18698,-2.3125,0.003033068
60339.9194,13.125,70.1875,28.9552,-2.125,0.003009709
60339.9219,13.1875,69.875,29.31554,-1.9375,0.003017495
60339.9244,13.125,69.75,29.45097,-2.1875,0.003025282
60339.9269,13.0625,69.375,29.5023,-2.4375,0.003057985
60339.9294,13.0625,69.1875,29.52372,-2.3125,0.003028396
60339.9319,12.9375,68.9375,29.48768,-2.375,0.003003479
60339.9344,13.0,68.5,29.32723,-2.375,0.003017495
60339.9369,12.9375,68.0,28.99019,-2.6875,0.003029954
60339.9394,12.9375,67.875,28.47684,-2.8125,0.003056428
60339.9419,12.875,67.3125,27.844,-2.875,0.003039297
60339.9444,13.0,66.75,27.1775,-3.0,0.003014381
60339.9469,12.8125,66.25,26.55011,-2.9375,0.003022167
60339.9494,13.0,66.0,25.98859,-2.8125,0.003048641
60339.9519,12.9375,65.4375,25.4681,-2.6875,0.0030611
60339.9544,12.9375,64.8125,24.93655,-2.3125,0.003025282
60339.9569,12.875,64.25,24.3546,-2.6875,0.003012823
60339.9594,13.0,63.6875,23.7278,-2.875,0.003031511
60339.9619,12.875,63.0625,23.1112,-2.875,0.003045527
60339.9644,12.875,62.5,22.58229,-2.8125,0.003051756
60339.9669,13.0,61.9375,22.19576,-3.1875,0.003033068
60339.9694,13.0625,61.3125,21.94671,-3.1875,0.003026839
60339.9719,13.0625,60.875,21.76494,-3.0625,0.00302061
60339.9744,12.9375,60.0625,21.5481,-2.6875,0.003057985
60339.9769,12.8125,59.5,21.21876,-2.875,0.003065771
60339.9794,12.875,58.875,20.7744,-2.8125,0.003040855
60339.9819,12.875,58.25,20.29866,-2.8125,0.003033068
60339.9844,12.8125,57.625,19.9232,-2.9375,0.003026839
60339.9869,13.0,57.125,19.75458,-2.8125,0.003040855
60339.9894,12.9375,56.8125,19.80406,-2.875,0.003029954
60339.9919,12.875,56.25,19.96341,-3.1875,0.003025282
60339.9944,12.9375,55.9375,20.04517,-2.25,0.003039297
60339.9969,12.75,55.4375,19.87628,-2.9375,0.003039297
60339.9994,12.75,55.125,19.39948,-2.4375,0.003047084
60340.0019,12.8125,54.75,18.72566,-2.5625,0.003036183
60340.0044,12.9375,54.375,18.10194,-2.75,0.003025282
60340.0069,12.875,54.0,17.79945,-2.6875,0.003039297
60340.0094,12.9375,53.8125,17.97039,-2.8125,0.003042412
60340.0119,12.9375,53.375,18.54737,-2.9375,0.003039297
60340.0144,12.9375,52.8125,19.24437,-3.0,0.003026839
60340.0169,12.9375,52.5625,19.67081,-2.625,0.003015938
60340.0194,13.0625,52.0625,19.51382,-2.75,0.003025282
60340.0219,13.0,51.9375,18.70215,-2.875,0.003048641
60340.0244,13.25,51.5625,17.46629,-3.0,0.00303774
60340.0269,13.0625,51.1875,16.25433,-3.4375,0.003000365
60340.0294,12.875,50.9375,15.53365,-3.0,0.003012823
60340.0319,13.125,50.5625,15.5687,-2.875,0.003045527
60340.0344,13.25,50.375,16.28138,-2.625,0.003042412
60340.0369,13.1875,49.9375,17.27161,-2.3125,0.003043969
60340.0394,13.125,49.8125,17.99412,-2.5,0.003012823
60340.0419,12.875,49.3125,18.01197,-2.8125,0.003014381
60340.0444,13.0625,49.125,17.20712,-2.1875,0.003040855
60340.0469,12.9375,48.875,15.84313,-2.5625,0.003051756
60340.0494,13.0,48.5625,14.4459,-3.0625,0.003053313
60340.0519,12.9375,48.25,13.55779,-3.0625,0.003023724
60340.0544,12.8125,48.125,13.48339,-2.8125,0.003008151
60340.0569,13.0,47.75,14.15072,-2.4375,0.003023724
60340.0594,12.9375,47.625,15.15528,-2.5,0.003025282
60340.0619,12.875,47.375,15.9627,-2.8125,0.003023724
60340.0644,12.875,47.25,16.16742,-2.6875,0.003014381
60340.0669,12.9375,47.125,15.67828,-2.625,0.003017495
60340.0694,12.75,46.6875,14.74076,-2.4375,0.003040855
60340.0719,12.9375,46.5,13.79105,-2.125,0.003048641
60340.0744,12.875,46.5,13.22325,-2.875,0.003065771
60340.0769,13.0625,46.1875,13.19323,-2.3125,0.003081344
60340.0794,12.9375,46.0625,13.55967,-2.4375,0.003115605
60340.0819,12.9375,45.875,13.98678,-2.0625,0.003123392
60340.0844,12.9375,45.8125,14.1458,-2.125,0.003109376
60340.0869,12.8125,45.625,13.90171,-2.375,0.003107819
60340.0894,12.9375,45.3125,13.38237,-2.5,0.003131178
60340.0919,12.875,45.1875,12.89509,-2.75,0.003163881
60340.0944,12.8125,45.125,12.74157,-2.8125,0.003168553
60340.0969,12.875,44.9375,13.03875,-2.8125,0.003140522
60340.0994,12.6875,44.75,13.64898,-2.9375,0.003082902
60340.1019,12.8125,44.625,14.2603,-2.875,0.003089131
60340.1044,12.6875,44.3125,14.5714,-2.9375,0.003106261
60340.1069,12.75,44.125,14.47405,-2.75,0.003065771
60340.1094,12.5625,44.0625,14.12674,-2.5,0.003014381
60340.1119,12.6875,43.875,13.87214,-2.625,0.00298012
60340.1144,12.75,43.6875,14.04068,-2.875,0.002992578
60340.1169,12.8125,43.625,14.74999,-2.6875,0.003017495
60340.1194,12.75,43.5625,15.81667,-2.625,0.002994136
60340.1219,12.75,43.4375,16.83717,-3.0625,0.002984792
60340.1244,12.6875,43.4375,17.4002,-2.625,0.00298012
60340.1269,12.75,43.25,17.31704,-2.75,0.002975448
60340.1294,12.75,43.0625,16.74093,-2.8125,0.003009709
60340.1319,12.5625,43.0,16.10287,-2.0,0.003015938
60340.1344,12.625,42.75,15.89009,-2.375,0.002994136
60340.1369,12.5625,42.6875,16.38218,-2.375,0.002981677
60340.1394,12.4375,42.3125,17.48632,-2.1875,0.002987906
60340.1419,12.5,42.4375,18.76583,-2.5,0.002998808
60340.1444,12.625,42.125,19.65405,-2.875,0.002992578
60340.1469,12.5625,42.1875,19.74574,-2.8125,0.002981677
60340.1494,12.625,42.0625,19.01395,-2.8125,0.002975448
60340.1519,12.5,42.0,17.83531,-3.0625,0.00299725
60340.1544,12.625,41.8125,16.80744,-3.3125,0.002984792
60340.1569,12.375,41.8125,16.44722,-2.9375,0.002973891
60340.1594,12.375,41.625,16.92309,-3.0,0.002969219
60340.1619,12.1875,41.5625,17.95906,-3.0,0.002920942
60340.1644,12.1875,41.4375,18.96138,-3.5625,0.002878895
60340.1669,12.125,41.375,19.30513,-2.8125,0.002853979
60340.1694,12.25,41.375,18.63879,-3.0,0.002819718
60340.1719,12.25,41.375,17.0588,-2.9375,0.002790129
60340.1744,12.1875,41.0625,15.06863,-3.4375,0.002830619
60340.1769,12.1875,41.0,13.34539,-3.375,0.002914713
60340.1794,12.1875,41.0625,12.42881,-3.5625,0.00286488
60340.1819,12.0625,41.0625,12.47887,-3.0,0.002818161
60340.1844,12.0,40.75,13.21306,-2.6875,0.002836848
60340.1869,12.1875,40.75,14.04442,-2.8125,0.002816603
60340.1894,11.9375,40.75,14.35104,-3.125,0.002804145
60340.1919,12.0625,40.6875,13.75131,-3.4375,0.002811931
60340.1944,12.0,40.4375,12.26383,-2.6875,0.002863322
60340.1969,12.0625,40.4375,10.28995,-2.75,0.002900698
60340.1994,12.0,40.375,8.435822,-2.75,0.002927172
60340.2019,12.0,40.4375,7.259416,-3.125,0.002958318
60340.2044,12.0625,40.25,7.048438,-3.25,0.002952089
60340.2069,12.25,40.25,7.716599,-3.9375,0.002930286
60340.2094,12.0625,40.125,8.85357,-3.875,0.0029225
60340.2119,12.1875,40.0,9.899258,-3.5625,0.002955203
60340.2144,12.125,40.0625,10.37027,-3.1875,0.002977005
60340.2169,12.0625,39.75,10.04926,-3.5625,0.002944302
60340.2194,12.125,39.875,9.068268,-3.3125,0.002934958
60340.2219,12.25,39.75,7.857792,-3.5625,0.002933401
60340.2244,12.1875,39.875,6.980235,-3.75,0.002952089
60340.2269,12.0,39.75,6.915407,-3.6875,0.002978563
60340.2294,12.1875,39.75,7.879346,-3.375,0.002950531
60340.2319,12.25,39.625,9.746928,-2.75,0.002938073
60340.2344,12.0625,39.5,12.10919,-3.0625,0.002938073
60340.2369,12.1875,39.375,14.44236,-3.0625,0.002955203
60340.2394,12.1875,39.375,16.31931,-3.1875,0.002947417
60340.2419,12.0,39.3125,17.57546,-3.3125,0.002941187
60340.2444,12.1875,39.3125,18.36046,-2.9375,0.002947417
60340.2469,12.0625,39.125,19.05321,-2.9375,0.002955203
60340.2494,12.0625,39.0,20.08041,-2.8125,0.002947417
60340.2519,11.9375,39.0,21.72216,-3.0625,0.002931844
60340.2544,12.0625,38.875,23.99241,-2.6875,0.002927172
60340.2569,12.0625,38.875,26.64602,-2.625,0.002936516
60340.2594,12.0,38.875,29.30365,-2.5,0.002947417
60340.2619,12.0625,38.75,31.63004,-2.5625,0.002953646
60340.2644,12.0625,38.75,33.47813,-2.5,0.002933401
60340.2669,12.1875,38.75,34.93213,-2.5,0.002933401
60340.2694,11.875,38.8125,36.23656,-2.9375,0.002936516
60340.2719,11.9375,38.75,37.65464,-2.9375,0.002948974
60340.2744,11.8125,38.625,39.33143,-3.25,0.002955203
60340.2769,12.125,38.5625,41.23117,-3.0,0.002920942
60340.2794,11.9375,38.5625,43.17387,-3.25,0.002913156
60340.2819,11.9375,38.625,44.94301,-2.4375,0.002908484
60340.2844,11.9375,38.375,46.40135,-2.625,0.002919385
60340.2869,12.0,38.375,47.55402,-3.125,0.002934958
60340.2894,11.75,38.375,48.52969,-2.875,0.002900698
60340.2919,11.75,38.3125,49.4985,-2.9375,0.002888239
60340.2944,11.75,38.25,50.57737,-2.8125,0.002911599
60340.2969,11.75,38.125,51.77555,-3.0625,0.002927172
60340.2994,11.5625,37.9375,53.00637,-2.8125,0.002919385
60340.3019,11.75,38.0625,54.15096,-3.125,0.002877338
60340.3044,11.75,37.9375,55.13285,-2.6875,0.002866437
60340.3069,11.8125,37.875,55.95913,-2.9375,0.002874223
60340.3094,11.75,38.0,56.70711,-2.625,0.002894468
60340.3119,11.6875,37.875,57.46867,-2.9375,0.002897583
60340.3144,11.8125,37.875,58.28854,-3.1875,0.002871109
60340.3169,11.8125,37.9375,59.13359,-3.125,0.002867994
60340.3194,11.75,37.875,59.91027,-3.0,0.002869552
60340.3219,11.625,37.875,60.51824,-3.0625,0.002871109
60340.3244,11.5625,37.875,60.9077,-3.3125,0.002883567
60340.3269,11.625,37.9375,61.10814,-3.1875,0.002872666
60340.3294,11.5625,38.125,61.2131,-2.4375,0.002869552
60340.3319,11.875,38.25,61.33094,-3.125,0.002875781
60340.3344,11.875,38.8125,61.53004,-2.9375,0.00288201
60340.3369,11.75,39.0,61.80771,-3.25,0.002833734
60340.3394,11.625,39.3125,62.09689,-3.3125,0.002846192
60340.3419,11.75,39.9375,62.30393,-2.9375,0.002871109
60340.3444,11.8125,40.6875,62.35534,-2.875,0.002860208
60340.3469,11.875,41.625,62.22978,-2.875,0.002852421
60340.3494,11.9375,42.4375,61.96268,-2.9375,0.002843077
60340.3519,11.8125,43.3125,61.62511,-2.8125,0.002850864
60340.3544,11.875,44.3125,61.29143,-2.3125,0.002877338
60340.3569,11.8125,45.125,61.01197,-2.4375,0.002891354
60340.3594,12.0,45.9375,60.80092,-2.375,0.002889796
60340.3619,12.0,46.875,60.64005,-2.9375,0.002872666
60340.3644,12.0,47.6875,60.49147,-2.875,0.002905369
60340.3669,11.9375,48.125,60.3124,-3.0625,0.002945859
60340.3694,11.8125,48.875,60.06829,-3.0625,0.002970776
60340.3719,12.0625,49.5,59.74162,-3.3125,0.002969219
60340.3744,12.0,50.1875,59.33757,-2.9375,0.002958318
60340.3769,12.0625,51.0,58.88456,-3.25,0.002998808
60340.3794,11.8125,51.75,58.42722,-2.9375,0.003057985
60340.3819,12.0625,52.3125,58.01086,-3.25,0.003072001
60340.3844,11.875,53.0,57.66124,-3.625,0.003093803
60340.3869,12.0,54.0,57.36838,-3.4375,0.003092246
60340.3894,12.0625,54.625,57.08586,-3.5625,0.00311872
60340.3919,12.0,55.625,56.74984,-3.0,0.003163881
60340.3944,12.0,56.5625,56.31228,-3.375,0.003171668
60340.3969,12.125,57.25,55.77384,-3.5625,0.003157652
60340.3994,11.9375,58.0625,55.19629,-3.6875,0.003137407
60340.4019,12.0,58.875,54.68497,-3.5,0.003138965
60340.4044,12.125,59.6875,54.34556,-3.1875,0.003145194
60340.4069,12.1875,60.6875,54.23344,-3.1875,0.003137407
60340.4094,12.0625,61.25,54.32021,-3.0625,0.003109376
60340.4119,12.0,61.875,54.49618,-2.875,0.003079787
60340.4144,12.0625,62.5625,54.60994,-2.6875,0.003092246
60340.4169,11.9375,63.0,54.5285,-2.5625,0.003087574
60340.4194,12.0,63.75,54.19042,-2.9375,0.003053313
60340.4219,11.9375,64.375,53.62723,-3.125,0.003047084
60340.4244,12.1875,65.0,52.94222,-3.0,0.003042412
60340.4269,12.0625,65.4375,52.25724,-2.9375,0.003062657
60340.4294,12.125,66.0,51.65517,-2.75,0.003050198
60340.4319,12.1875,66.4375,51.14433,-2.625,0.003022167
60340.4344,12.1875,66.9375,50.66038,-3.0625,0.003006594
60340.4369,12.25,67.3125,50.10204,-2.9375,0.003026839
60340.4394,12.3125,67.625,49.37878,-3.0,0.003051756
60340.4419,12.125,68.0,48.444,-3.125,0.003036183
60340.4444,12.125,68.125,47.29597,-2.9375,0.003022167
60340.4469,12.1875,68.5,45.94704,-3.1875,0.003017495
60340.4494,12.1875,68.625,44.38009,-3.125,0.00303774
60340.4519,12.1875,69.0625,42.52347,-2.9375,0.003050198
60340.4544,12.25,69.3125,40.26638,-2.6875,0.003026839
60340.4569,12.25,69.3125,37.51765,-2.125,0.002998808
60340.4594,12.25,69.4375,34.28755,-2.5,0.003006594
60340.4619,12.3125,69.5,30.75453,-2.5,0.003034625
60340.4644,12.25,69.625,27.2783,-2.4375,0.003053313
60340.4669,12.3125,69.75,24.3393,-2.75,0.00302061
60340.4694,12.3125,69.875,22.41418,-2.625,0.00299725
60340.4719,12.3125,69.6875,21.82736,-2.5,0.003003479
60340.4744,12.0625,69.625,22.6338,-2.6875,0.003043969
60340.4769,12.125,69.5625,24.58182,-2.4375,0.003045527
60340.4794,12.125,69.625,27.17658,-2.5625,0.003022167
60340.4819,12.0625,69.5,29.82554,-2.5,0.003017495
60340.4844,12.0625,69.375,32.01378,-2.5,0.003015938
60340.4869,12.125,69.125,33.44358,-2.3125,0.003029954
60340.4894,12.25,68.9375,34.08723,-2.25,0.003034625
60340.4919,11.9375,68.6875,34.13785,-2.5625,0.003015938
60340.4944,12.0,68.5,33.8865,-2.5,0.003022167
60340.4969,12.125,68.125,33.58253,-1.9375,0.00302061
60340.4994,12.125,67.875,33.33864,-2.4375,0.003033068
60340.5019,12.0625,67.625,33.11724,-2.6875,0.00302061
60340.5044,11.875,67.1875,32.79379,-2.5,0.003003479
60340.5069,12.0,66.9375,32.25645,-2.4375,0.003026839
60340.5094,12.125,66.5625,31.48612,-2.3125,0.003039297
60340.5119,12.0625,66.0625,30.57564,-2.5625,0.00303774
60340.5144,12.125,65.875,29.68181,-2.9375,0.003025282
60340.5169,12.125,65.375,28.93998,-2.5,0.003022167
60340.5194,12.125,64.9375,28.39155,-2.75,0.003025282
60340.5219,11.9375,64.3125,27.96604,-2.3125,0.00303774
60340.5244,12.0625,63.75,27.52769,-2.375,0.003056428
60340.5269,12.0625,63.1875,26.96023,-1.9375,0.003040855
60340.5294,12.0,62.6875,26.2397,-2.5,0.003012823
60340.5319,12.0,62.125,25.45308,-2.4375,0.003011266
60340.5344,12.0625,61.5,24.75087,-2.5625,0.003028396
60340.5369,12.0625,60.75,24.26021,-2.0,0.003051756
60340.5394,12.0625,60.125,24.0094,-1.8125,0.003028396
60340.5419,12.125,59.5,23.90761,-2.1875,0.003009709
60340.5444,12.0625,59.0625,23.79608,-2.6875,0.003029954
60340.5469,12.125,58.25,23.54285,-2.8125,0.003065771
60340.5494,12.1875,57.8125,23.1241,-2.9375,0.003072001
60340.5519,11.9375,57.25,22.64316,-2.9375,0.003034625
60340.5544,11.9375,56.6875,22.27147,-2.625,0.003029954
60340.5569,11.9375,56.125,22.14228,-2.9375,0.003040855
60340.5594,12.0,55.8125,22.25739,-2.4375,0.003056428
60340.5619,12.0,55.3125,22.46642,-2.3125,0.003064214
60340.5644,12.0625,55.1875,22.53925,-2.5625,0.003042412
60340.5669,12.1875,54.8125,22.29742,-2.625,0.003045527
60340.5694,12.25,54.375,21.73274,-2.875,0.003043969
60340.5719,12.25,54.0,21.04029,-2.625,0.003048641
60340.5744,12.1875,53.625,20.5354,-2.5625,0.003053313
60340.5769,12.0625,53.25,20.48705,-2.3125,0.003045527
60340.5794,12.125,52.875,20.95244,-2.75,0.003048641
60340.5819,12.1875,52.3125,21.70692,-2.6875,0.00305487
60340.5844,12.25,51.9375,22.31995,-2.75,0.003059542
60340.5869,12.125,51.75,22.35343,-2.6875,0.003036183
60340.5894,12.3125,51.375,21.58753,-2.9375,0.003033068
60340.5919,12.25,51.0,20.159,-2.9375,0.003045527
60340.5944,12.125,50.8125,18.5305,-2.8125,0.003056428
60340.5969,12.1875,50.5,17.29073,-2.625,0.003050198
60340.5994,12.1875,50.1875,16.87633,-2.6875,0.003029954
60340.6019,12.25,49.6875,17.35082,-2.4375,0.003033068
60340.6044,12.25,49.5625,18.35683,-2.3125,0.003059542
60340.6069,12.3125,49.125,19.27498,-2.625,0.003056428
60340.6094,12.1875,48.9375,19.51795,-2.8125,0.003053313
60340.6119,12.25,48.5625,18.82037,-2.6875,0.003047084
60340.6144,12.25,48.3125,17.37735,-2.625,0.003042412
60340.6169,12.25,48.0625,15.75946,-2.75,0.0030611
60340.6194,12.3125,47.75,14.64118,-2.4375,0.00307823
60340.6219,12.1875,47.75,14.47457,-2.3125,0.003072001
60340.6244,12.125,47.5,15.26955,-2.6875,0.003031511
60340.6269,12.3125,47.3125,16.59038,-3.1875,0.003017495
60340.6294,12.3125,47.125,17.76973,-2.3125,0.003034625
60340.6319,12.3125,46.75,18.23253,-2.3125,0.00305487
60340.6344,12.3125,46.625,17.76753,-2.875,0.00305487
60340.6369,12.1875,46.4375,16.61262,-2.875,0.003014381
60340.6394,12.125,46.125,15.3157,-2.625,0.003045527
60340.6419,12.125,46.0,14.44819,-2.625,0.003106261
60340.6444,12.25,45.75,14.32129,-2.6875,0.003126506
60340.6469,12.125,45.5625,14.84991,-3.125,0.003140522
60340.6494,12.125,45.375,15.62801,-2.8125,0.003140522
60340.6519,12.0625,45.25,16.16656,-3.25,0.003145194
60340.6544,12.25,44.9375,16.16138,-3.375,0.003154538
60340.6569,12.1875,44.8125,15.64705,-3.0625,0.003179454
60340.6594,12.0,44.8125,14.95834,-2.6875,0.003185684
60340.6619,12.0625,44.5,14.52849,-3.125,0.003166996
60340.6644,12.0,44.375,14.64069,-2.875,0.003173225
60340.6669,12.0,44.125,15.27305,-2.9375,0.003157652
60340.6694,12.1875,44.125,16.12129,-2.875,0.003128063
60340.6719,12.125,43.9375,16.78255,-2.625,0.003103147
60340.6744,11.9375,43.6875,16.9916,-2.6875,0.003082902
60340.6769,11.875,43.6875,16.7738,-2.6875,0.003089131
60340.6794,12.125,43.4375,16.42671,-2.4375,0.003051756
60340.6819,11.9375,43.25,16.34069,-2.5625,0.003009709
60340.6844,12.0,43.3125,16.76193,-3.1875,0.002991021
60340.6869,11.875,43.0,17.63589,-3.0,0.002998808
60340.6894,11.9375,42.875,18.62487,-2.4375,0.003012823
60340.6919,12.0625,42.875,19.29446,-2.4375,0.003003479
60340.6944,11.875,42.625,19.36522,-3.3125,0.002995693
60340.6969,11.9375,42.625,18.88565,-2.4375,0.002989464
60340.6994,11.875,42.4375,18.22318,-2.625,0.003005037
60340.7019,12.0625,42.0625,17.87096,-2.1875,0.003028396
60340.7044,11.8125,42.0,18.17278,-2.4375,0.003012823
60340.7069,11.8125,41.9375,19.11795,-3.125,0.002998808
60340.7094,12.0,42.0,20.32467,-2.5625,0.003001922
60340.7119,11.9375,41.75,21.22846,-2.4375,0.003011266
60340.7144,11.9375,41.5625,21.37936,-2.5625,0.003033068
60340.7169,11.8125,41.4375,20.68861,-2.4375,0.003011266
60340.7194,11.75,41.3125,19.48925,-2.5,0.002998808
60340.7219,11.8125,41.25,18.37304,-2.0625,0.002991021
60340.7244,11.8125,41.25,17.88515,-2.25,0.003015938
60340.7269,11.625,41.0625,18.2365,-2.5625,0.003036183
60340.7294,11.8125,41.125,19.18378,-2.1875,0.002998808
60340.7319,11.8125,41.0,20.14289,-2.0625,0.002934958
60340.7344,11.6875,41.0625,20.47807,-2.375,0.002889796
60340.7369,11.75,40.875,19.8182,-2.3125,0.002880453
60340.7394,11.75,40.75,18.24234,-2.3125,0.002827504
60340.7419,11.875,40.625,16.24269,-2.6875,0.002818161
60340.7444,11.75,40.6875,14.4884,-2.3125,0.002911599
60340.7469,11.75,40.5625,13.51037,-2.4375,0.00296299
60340.7494,11.625,40.5625,13.46386,-2.5625,0.002914713
60340.7519,11.75,40.375,14.07429,-2.6875,0.002863322
60340.7544,11.6875,40.3125,14.78263,-2.3125,0.002827504
60340.7569,11.5625,40.1875,15.0117,-2.3125,0.002805702
60340.7594,11.6875,40.3125,14.41937,-2.8125,0.002822833
60340.7619,11.75,40.25,13.03031,-2.9375,0.002886682
60340.7644,11.6875,40.0,11.20014,-2.5625,0.002927172
60340.7669,11.625,39.9375,9.44738,-3.125,0.002930286
60340.7694,11.6875,39.875,8.239539,-2.875,0.002950531
60340.7719,11.8125,39.875,7.825282,-2.5,0.002984792
60340.7744,11.75,39.8125,8.170361,-2.625,0.002994136
60340.7769,11.6875,39.6875,9.002838,-2.8125,0.002977005
60340.7794,11.75,39.625,9.932107,-2.625,0.002970776
60340.7819,11.75,39.625,10.58974,-2.625,0.002977005
60340.7844,11.875,39.5625,10.74735,-2.75,0.002998808
60340.7869,11.6875,39.4375,10.38102,-2.875,0.002998808
60340.7894,11.75,39.3125,9.674812,-2.25,0.002972333
60340.7919,11.75,39.25,8.964244,-2.6875,0.002983235
60340.7944,11.875,39.375,8.633435,-2.5,0.002992578
60340.7969,11.75,39.3125,8.99135,-2.75,0.003011266
60340.7994,11.6875,39.1875,10.16253,-2.8125,0.003009709
60340.8019,11.6875,39.0,12.03338,-2.75,0.002986349
60340.8044,11.75,39.0625,14.28301,-2.9375,0.002975448
60340.8069,11.8125,39.0,16.49815,-3.375,0.002987906
60340.8094,11.8125,38.625,18.33362,-3.375,0.003011266
60340.8119,11.8125,38.75,19.65308,-3.1875,0.003012823
60340.8144,11.75,38.875,20.58486,-3.0625,0.002995693
60340.8169,11.75,38.8125,21.46014,-3.0625,0.002983235
60340.8194,11.625,38.6875,22.65677,-3.0625,0.002975448
60340.8219,11.6875,38.625,24.41996,-3.125,0.002995693
60340.8244,11.625,38.8125,26.74519,-3.0,0.00299725
60340.8269,11.6875,38.5625,29.38136,-2.875,0.002983235
60340.8294,11.75,38.4375,31.95283,-3.0,0.002998808
60340.8319,11.6875,38.375,34.139,-3.1875,0.003008151
60340.8344,11.75,38.5,35.8213,-3.0,0.002991021
60340.8369,11.625,38.3125,37.1255,-3.25,0.002992578
60340.8394,11.625,38.3125,38.33955,-3.3125,0.002983235
60340.8419,11.625,38.3125,39.75379,-3.0625,0.002983235
60340.8444,11.8125,38.125,41.50911,-3.25,0.003003479
60340.8469,11.75,38.1875,43.53038,-3.375,0.003006594
60340.8494,11.5625,38.0625,45.57548,-3.4375,0.002983235
60340.8519,11.5625,38.0625,47.36836,-3.0,0.002972333
60340.8544,11.5,37.875,48.74187,-3.125,0.002984792
60340.8569,11.5625,38.0,49.71597,-3.125,0.00299725
60340.8594,11.6875,37.9375,50.47371,-2.9375,0.002986349
60340.8619,11.5625,37.875,51.2545,-2.875,0.002964547
60340.8644,11.75,37.875,52.22676,-2.8125,0.002959875
60340.8669,11.4375,37.875,53.40873,-2.5625,0.002975448
60340.8694,11.5,37.6875,54.6754,-2.6875,0.002987906
60340.8719,11.5,37.8125,55.84108,-2.375,0.002964547
60340.8744,11.4375,37.5,56.76684,-2.5625,0.002945859
60340.8769,11.5,37.625,57.43288,-2.8125,0.002944302
60340.8794,11.5,37.6875,57.93919,-2.8125,0.002958318
60340.8819,11.375,37.625,58.43991,-3.1875,0.002970776
60340.8844,11.3125,37.6875,59.05244,-2.8125,0.00295676
60340.8869,11.375,37.5625,59.79354,-2.5,0.002933401
60340.8894,11.5625,37.6875,60.57587,-2.625,0.002919385
60340.8919,11.25,37.6875,61.26253,-2.6875,0.002931844
60340.8944,11.375,37.8125,61.74557,-2.9375,0.00296299
60340.8969,11.375,37.75,62.00317,-2.6875,0.002952089
60340.8994,11.3125,37.8125,62.10528,-2.9375,0.002910041
60340.9019,11.3125,38.0,62.16735,-2.875,0.002917828
60340.9044,11.4375,38.375,62.28157,-3.0,0.002953646
60340.9069,11.5,38.6875,62.46521,-2.625,0.002930286
60340.9094,11.375,39.375,62.65436,-2.9375,0.002927172
60340.9119,11.4375,39.9375,62.74414,-2.6875,0.002938073
60340.9144,11.5,40.875,62.65148,-2.8125,0.002941187
60340.9169,11.5,41.5,62.3652,-3.125,0.002936516
60340.9194,11.5,42.4375,61.95562,-3.3125,0.002920942
60340.9219,11.375,43.375,61.53986,-3.0625,0.002908484
60340.9244,11.4375,44.125,61.2224,-2.9375,0.002914713
60340.9269,11.4375,45.125,61.04334,-2.75,0.002955203
60340.9294,11.5,45.9375,60.96131,-3.0,0.00296299
60340.9319,11.6875,46.625,60.87843,-2.8125,0.002966104
60340.9344,11.75,47.5,60.6931,-2.4375,0.002955203
60340.9369,11.6875,48.1875,60.35378,-2.6875,0.002981677
60340.9394,11.6875,48.875,59.88457,-2.5625,0.003017495
60340.9419,11.6875,49.5625,59.37195,-2.3125,0.003033068
60340.9444,11.6875,50.1875,58.92024,-2.9375,0.003048641
60340.9469,11.5625,50.75,58.59923,-2.875,0.003059542
60340.9494,11.625,51.4375,58.41075,-2.8125,0.003103147
60340.9519,11.6875,52.25,58.28906,-3.0,0.003145194
60340.9544,11.75,53.0,58.13343,-2.6875,0.003160767
60340.9569,11.75,53.8125,57.85667,-3.25,0.003151423
60340.9594,11.8125,54.6875,57.42506,-3.1875,0.003157652
60340.9619,11.75,55.5625,56.87211,-2.875,0.00319347
60340.9644,11.875,56.5,56.28178,-3.0,0.003218387
60340.9669,11.6875,57.3125,55.75105,-3.375,0.003204371
60340.9694,11.6875,58.125,55.34972,-3.0625,0.003174782
60340.9719,11.5,58.875,55.09673,-2.6875,0.003149866
60340.9744,11.6875,59.75,54.96141,-2.75,0.00315298
60340.9769,11.6875,60.3125,54.88494,-2.625,0.003166996
60340.9794,11.75,61.125,54.80871,-2.5625,0.00315298
60340.9819,11.625,61.8125,54.69484,-2.9375,0.003124949
60340.9844,11.5,62.375,54.53068,-3.0625,0.003092246
60340.9869,11.75,63.0625,54.31898,-3.375,0.003100032
60340.9894,11.75,63.75,54.06382,-3.0625,0.003098475
60340.9919,11.8125,64.1875,53.76074,-3.0,0.003104704
60340.9944,11.9375,64.875,53.39647,-3.0625,0.003087574
60340.9969,11.8125,65.5,52.95735,-2.75,0.003079787
60340.9994,11.75,65.9375,52.43862,-2.8125,0.003101589
60341.0019,11.75,66.375,51.84581,-2.5,0.003089131
60341.0044,11.8125,66.75,51.18696,-2.9375,0.003068886
60341.0069,12.0,67.125,50.45975,-2.8125,0.003076673
60341.0094,12.0,67.625,49.64105,-3.0625,0.003081344
60341.0119,12.0,67.8125,48.68572,-2.8125,0.003096917
60341.0144,12.0,68.1875,47.53479,-3.25,0.003081344
60341.0169,11.9375,68.375,46.12688,-2.875,0.003064214
60341.0194,11.875,68.625,44.40828,-3.1875,0.003068886
60341.0219,12.0,68.8125,42.33984,-2.9375,0.003068886
60341.0244,12.1875,68.875,39.90343,-2.875,0.003090688
60341.0269,11.875,69.0625,37.11553,-2.875,0.003089131
60341.0294,12.0625,69.375,34.05123,-3.3125,0.003065771
60341.0319,11.75,69.3125,30.87134,-3.4375,0.003070443
60341.0344,12.0,69.375,27.83573,-3.1875,0.003084459
60341.0369,12.0,69.25,25.28294,-3.1875,0.003096917
60341.0394,11.875,69.3125,23.5663,-3.3125,0.003079787
60341.0419,11.875,69.3125,22.9564,-3.875,0.003050198
60341.0444,12.0625,69.4375,23.5419,-3.875,0.003057985
60341.0469,11.8125,69.375,25.17079,-3.5625,0.003100032
60341.0494,11.8125,69.125,27.4657,-3.9375,0.003098475
60341.0519,11.8125,69.0,29.91887,-3.875,0.003067329
60341.0544,12.0625,68.9375,32.03748,-4.25,0.003056428
60341.0569,12.0,68.9375,33.48482,-4.125,0.003062657
60341.0594,12.0625,68.75,34.16102,-3.6875,0.003075115
60341.0619,12.0625,68.625,34.19195,-3.5625,0.003086016
60341.0644,12.0625,68.25,33.83546,-3.4375,0.003065771
60341.0669,11.875,68.0625,33.3514,-3.3125,0.003067329
60341.0694,11.8125,67.625,32.89552,-3.375,0.003051756
60341.0719,11.75,67.3125,32.48302,-3.5625,0.003065771
60341.0744,11.9375,66.9375,32.02925,-3.4375,0.003056428
60341.0769,11.8125,66.5,31.43629,-3.0,0.003057985
60341.0794,11.875,66.0,30.67298,-3.3125,0.003067329
60341.0819,11.75,65.8125,29.80375,-3.375,0.003072001
60341.0844,11.9375,65.375,28.95367,-3.375,0.003075115
60341.0869,11.875,65.0,28.23482,-3.3125,0.003059542
60341.0894,11.875,64.3125,27.68009,-3.3125,0.003062657
60341.0919,12.0,63.875,27.22467,-3.0625,0.003070443
60341.0944,11.875,63.25,26.74661,-3.25,0.003079787
60341.0969,11.875,62.6875,26.14187,-3.125,0.003087574
60341.0994,11.75,62.125,25.38847,-3.3125,0.003073558
60341.1019,11.9375,61.5625,24.56172,-3.625,0.003072001
60341.1044,11.875,60.9375,23.79066,-3.125,0.003087574
60341.1069,12.0625,60.375,23.18199,-3.4375,0.003093803
60341.1094,12.0,59.8125,22.75872,-3.4375,0.003087574
60341.1119,11.8125,59.25,22.45096,-3.125,0.003073558
60341.1144,11.875,58.5625,22.14458,-2.875,0.003064214
60341.1169,11.9375,57.9375,21.75822,-2.8125,0.003081344
60341.1194,11.9375,57.375,21.29838,-3.1875,0.003090688
60341.1219,11.875,56.8125,20.85631,-3.875,0.00309536
60341.1244,12.0,56.3125,20.54679,-3.8125,0.003065771
60341.1269,11.9375,56.0,20.42221,-3.6875,0.003072001
60341.1294,11.875,55.5,20.42039,-4.0,0.003093803
60341.1319,12.0,55.0,20.38451,-3.875,0.003104704
60341.1344,12.0,54.75,20.15283,-3.4375,0.003103147
60341.1369,11.9375,54.4375,19.66695,-3.375,0.0030611
60341.1394,11.9375,54.125,19.03422,-3.4375,0.003057985
60341.1419,12.1875,53.6875,18.49579,-3.625,0.003073558
60341.1444,12.0625,53.3125,18.30301,-3.125,0.003089131
60341.1469,11.8125,52.8125,18.56639,-2.5625,0.00309536
60341.1494,12.0,52.5625,19.15972,-3.0,0.0030611
60341.1519,11.9375,52.0625,19.74433,-2.9375,0.003045527
60341.1544,12.0625,51.75,19.91531,-3.0625,0.003064214
60341.1569,12.125,51.4375,19.40488,-2.9375,0.003073558
60341.1594,12.1875,51.125,18.23844,-3.375,0.003073558
60341.1619,12.0,50.8125,16.75443,-3.3125,0.003057985
60341.1644,12.0625,50.5,15.46554,-2.9375,0.003070443
60341.1669,12.0,50.0625,14.82104,-2.8125,0.003081344
60341.1694,11.875,49.875,14.98548,-2.8125,0.003075115
60341.1719,12.0625,49.5625,15.74504,-3.1875,0.003043969
60341.1744,12.0625,49.375,16.59891,-2.9375,0.003047084
60341.1769,11.9375,49.0625,16.993,-3.25,0.003068886
60341.1794,12.125,48.8125,16.58579,-2.875,0.003072001
60341.1819,12.375,48.5625,15.41639,-3.0625,0.003073558
60341.1844,12.125,48.1875,13.89165,-3.375,0.003040855
60341.1869,12.125,48.0625,12.59742,-3.125,0.003045527
60341.1894,12.25,47.9375,12.0251,-3.5625,0.003076673
60341.1919,12.1875,47.5625,12.34445,-3.0625,0.003084459
60341.1944,12.125,47.4375,13.32964,-2.6875,0.003062657
60341.1969,12.125,47.125,14.46926,-2.8125,0.003009709
60341.1994,12.1875,46.8125,15.20366,-2.9375,0.003019052
60341.2019,12.125,46.8125,15.17492,-3.0625,0.003065771
60341.2044,12.125,46.75,14.37478,-2.6875,0.003076673
60341.2069,12.0625,46.3125,13.12844,-2.8125,0.003079787
60341.2094,12.0625,46.125,11.93143,-3.4375,0.00305487
60341.2119,12.3125,45.9375,11.22191,-3.625,0.003087574
60341.2144,12.4375,45.625,11.1944,-3.0,0.003146751
60341.2169,12.1875,45.5,11.73485,-3.1875,0.003154538
60341.2194,12.3125,45.5,12.49607,-3.0625,0.003151423
60341.2219,12.4375,45.25,13.07,-3.5,0.003126506
60341.2244,12.3125,45.1875,13.1742,-3.3125,0.003129621
60341.2269,12.4375,45.0625,12.77038,-3.375,0.003162324
60341.2294,12.4375,44.875,12.06786,-3.3125,0.003170111
60341.2319,12.4375,44.625,11.41701,-3.3125,0.003162324
60341.2344,12.625,44.4375,11.14398,-3.1875,0.003126506
60341.2369,12.4375,44.3125,11.40108,-3.1875,0.003110933
60341.2394,12.375,44.1875,12.0976,-2.9375,0.003110933
60341.2419,12.375,44.125,12.94119,-2.5,0.003106261
60341.2444,12.3125,43.875,13.57154,-2.75,0.0030611
60341.2469,12.375,43.8125,13.72908,-3.1875,0.003023724
60341.2494,12.3125,43.5625,13.38299,-3.25,0.003019052
60341.2519,12.3125,43.5,12.75671,-3.4375,0.003006594
60341.2544,12.3125,43.3125,12.23224,-3.625,0.003011266
60341.2569,12.25,43.375,12.1696,-3.3125,0.003000365
60341.2594,12.3125,43.1875,12.72291,-3.1875,0.002989464
60341.2619,12.25,42.9375,13.74249,-3.25,0.003011266
60341.2644,12.25,42.9375,14.82127,-2.9375,0.002995693
60341.2669,12.1875,42.75,15.47632,-3.3125,0.002972333
60341.2694,12.1875,42.5,15.3884,-3.125,0.002969219
60341.2719,12.25,42.375,14.58373,-3.3125,0.002984792
60341.2744,12.3125,42.1875,13.4573,-3.5625,0.003012823
60341.2769,12.1875,42.0,12.60859,-3.6875,0.003003479
60341.2794,12.1875,41.9375,12.55404,-3.625,0.00298012
60341.2819,12.4375,41.75,13.45121,-3.125,0.002969219
60341.2844,12.25,42.0,14.97849,-3.125,0.002998808
60341.2869,12.375,41.875,16.44711,-3.0625,0.003025282
60341.2894,12.4375,41.8125,17.11032,-2.9375,0.00299725
60341.2919,12.3125,41.75,16.52913,-3.4375,0.002972333
60341.2944,12.3125,41.4375,14.81313,-2.9375,0.002973891
60341.2969,12.3125,41.5625,12.60541,-2.9375,0.00298012
60341.2994,12.25,41.375,10.80191,-2.8125,0.002972333
60341.3019,12.25,41.25,10.13043,-2.6875,0.002892911
60341.3044,12.25,41.0625,10.79263,-3.3125,0.00284152
60341.3069,12.25,41.125,12.35181,-3.0,0.002832176
60341.3094,12.375,40.9375,13.93053,-3.0,0.00280103
60341.3119,12.4375,41.0,14.62896,-3.3125,0.002825947
60341.3144,12.5,40.9375,13.95933,-3.5625,0.00289914
60341.3169,12.5,40.9375,12.07983,-3.4375,0.002877338
60341.3194,12.5625,40.9375,9.70858,-3.6875,0.002822833
60341.3219,12.375,40.875,7.760281,-3.4375,0.002832176
60341.3244,12.5,40.75,6.889439,-2.875,0.002825947
60341.3269,12.3125,40.625,7.172066,-3.0,0.002782343
60341.3294,12.375,40.5625,8.087852,-3.1875,0.002791687
60341.3319,12.4375,40.4375,8.809037,-2.9375,0.002857093
60341.3344,12.4375,40.375,8.643443,-3.25,0.002886682
60341.3369,12.5,40.25,7.400253,-2.6875,0.002897583
60341.3394,12.375,40.4375,5.488006,-3.25,0.002925614
60341.3419,12.4375,40.375,3.697582,-3.0625,0.002953646
60341.3444,12.4375,40.1875,2.781909,-3.375,0.002950531
60341.3469,12.4375,40.0,3.055525,-3.0,0.002950531
60341.3494,12.5625,40.1875,4.224237,-3.125,0.002933401
60341.3519,12.5,40.125,5.533371,-3.1875,0.002913156
60341.3544,12.625,40.0625,6.159114,-3.3125,0.002927172
60341.3569,12.6875,40.0625,5.641071,-3.4375,0.00293963
60341.3594,12.625,40.0625,4.133269,-3.375,0.002959875
60341.3619,12.5,39.875,2.34493,-3.4375,0.002934958
60341.3644,12.4375,39.875,1.202263,-3.625,0.002920942
60341.3669,12.5,39.75,1.40386,-3.8125,0.002938073
60341.3694,12.5625,39.5625,3.090908,-3.8125,0.002953646
60341.3719,12.625,39.625,5.793233,-3.75,0.002959875
60341.3744,12.5,39.5,8.669757,-3.5,0.002936516
60341.3769,12.5,39.4375,10.91591,-3.75,0.00293963
60341.3794,12.6875,39.375,12.13446,-3.6875,0.002931844
60341.3819,12.5,39.4375,12.49251,-3.9375,0.002959875
60341.3844,12.5,39.25,12.5994,-3.75,0.002958318
60341.3869,12.5,39.25,13.18181,-4.0625,0.002931844
60341.3894,12.6875,39.125,14.72651,-4.25,0.002919385
60341.3919,12.6875,39.1875,17.26477,-3.75,0.0029225
60341.3944,12.75,39.25,20.39186,-3.625,0.002955203
60341.3969,12.6875,39.125,23.49271,-3.375,0.00295676
60341.3994,12.5625,38.9375,26.04719,-3.4375,0.002931844
60341.4019,12.5625,39.0,27.85901,-3.625,0.002925614
60341.4044,12.8125,38.9375,29.10548,-3.5625,0.002938073
60341.4069,12.5625,38.875,30.20006,-3.375,0.002944302
60341.4094,12.5,38.75,31.55348,-3.3125,0.002955203
60341.4119,12.625,38.875,33.36251,-3.5625,0.002931844
60341.4144,12.5625,38.75,35.52795,-3.25,0.002931844
60341.4169,12.4375,38.75,37.72963,-3.0625,0.002945859
60341.4194,12.5,38.6875,39.60543,-3.3125,0.002942745
60341.4219,12.5,38.625,40.93447,-2.75,0.0029225
60341.4244,12.25,38.625,41.73369,-2.9375,0.002913156
60341.4269,12.5,38.6875,42.22922,-2.875,0.002930286
60341.4294,12.5,38.5,42.72998,-3.0625,0.002944302
60341.4319,12.5,38.4375,43.47666,-3.5625,0.00293963
60341.4344,12.5625,38.1875,44.54235,-3.5625,0.002896026
60341.4369,12.5,38.3125,45.82627,-2.875,0.002897583
60341.4394,12.5625,38.3125,47.13089,-3.375,0.002917828
60341.4419,12.4375,38.25,48.27222,-3.5625,0.002927172
60341.4444,12.375,38.25,49.16453,-3.8125,0.002925614
60341.4469,12.5,38.25,49.84127,-3.9375,0.00289914
60341.4494,12.5,38.1875,50.41222,-3.875,0.002896026
60341.4519,12.5625,38.1875,50.98902,-3.75,0.002903812
60341.4544,12.5625,38.125,51.622,-4.125,0.002908484
60341.4569,12.6875,38.25,52.27956,-3.875,0.002900698
60341.4594,12.5,38.3125,52.87436,-4.0,0.002863322
60341.4619,12.5,38.5,53.31608,-4.0625,0.002871109
60341.4644,12.625,38.3125,53.56,-4.0,0.002896026
60341.4669,12.3125,38.375,53.62701,-3.8125,0.002889796
60341.4694,12.625,38.5625,53.58966,-3.6875,0.002883567
60341.4719,12.625,38.9375,53.53609,-3.8125,0.002860208
60341.4744,12.625,39.125,53.5317,-3.75,0.002871109
60341.4769,12.6875,39.8125,53.59622,-3.4375,0.002886682
60341.4794,12.75,40.5,53.7032,-3.875,0.002877338
60341.4819,12.75,41.25,53.79716,-4.25,0.002871109
60341.4844,12.6875,42.125,53.81717,-4.0625,0.002850864
60341.4869,12.6875,43.125,53.71682,-4.1875,0.002844635
60341.4894,12.8125,44.0,53.47536,-4.5,0.002866437
60341.4919,12.8125,44.8125,53.10047,-4.4375,0.002872666
60341.4944,12.875,45.875,52.62497,-4.5,0.002877338
60341.4969,12.875,46.9375,52.09812,-4.25,0.002869552
60341.4994,12.875,47.4375,51.5727,-4.1875,0.002885125
60341.5019,12.875,48.3125,51.0895,-4.1875,0.002917828
60341.5044,12.875,48.875,50.66357,-3.8125,0.002931844
60341.5069,13.125,49.5625,50.27821,-4.125,0.002944302
60341.5094,12.9375,50.4375,49.89075,-3.9375,0.002959875
60341.5119,13.0625,51.0,49.45023,-4.3125,0.003011266
60341.5144,13.25,51.75,48.92191,-3.8125,0.00303774
60341.5169,13.25,52.5,48.30587,-3.8125,0.003043969
60341.5194,13.25,53.125,47.64003,-4.0625,0.00305487
60341.5219,13.3125,54.0,46.98446,-4.125,0.003089131
60341.5244,13.125,54.875,46.3933,-3.9375,0.003145194
60341.5269,13.125,55.625,45.88883,-3.5625,0.003171668
60341.5294,13.125,56.625,45.45056,-3.8125,0.003160767
60341.5319,13.3125,57.4375,45.02597,-4.0625,0.003148308
60341.5344,13.25,58.375,44.5585,-3.6875,0.003170111
60341.5369,13.1875,59.1875,44.01785,-3.0625,0.003199699
60341.5394,13.1875,60.0,43.41711,-3.0625,0.00317634
60341.5419,13.3125,60.75,42.80783,-3.5,0.003146751
60341.5444,13.375,61.5625,42.2557,-3.3125,0.003137407
60341.5469,13.25,62.5,41.81023,-3.0625,0.003143636
60341.5494,13.1875,63.0625,41.48446,-2.875,0.003151423
60341.5519,13.375,63.75,41.25421,-3.125,0.003129621
60341.5544,13.5,64.5625,41.07526,-3.4375,0.003100032
60341.5569,13.375,65.125,40.90701,-3.375,0.003081344
60341.5594,13.3125,65.625,40.72694,-3.0,0.003087574
60341.5619,13.5,66.125,40.52779,-3.0,0.003100032
60341.5644,13.6875,66.8125,40.30085,-2.625,0.00309536
60341.5669,13.5,67.375,40.01858,-2.875,0.003065771
60341.5694,13.3125,67.75,39.63049,-2.9375,0.003065771
60341.5719,13.5,68.0625,39.07813,-2.875,0.003068886
60341.5744,13.5625,68.625,38.32407,-2.8125,0.003068886
60341.5769,13.5625,68.875,37.37714,-2.75,0.00305487
60341.5794,13.4375,69.1875,36.29559,-2.875,0.003043969
60341.5819,13.6875,69.625,35.15955,-3.25,0.003045527
60341.5844,13.6875,69.9375,34.02033,-3.4375,0.00305487
60341.5869,13.625,70.1875,32.85049,-3.5625,0.003036183
60341.5894,13.5625,70.3125,31.52255,-3.0625,0.003031511
60341.5919,13.75,70.6875,29.83603,-3.0,0.003039297
60341.5944,13.75,70.8125,27.5918,-3.1875,0.003042412
60341.5969,13.875,70.875,24.68997,-2.75,0.003059542
60341.5994,13.625,71.0,21.21241,-3.125,0.003040855
60341.6019,13.6875,71.25,17.45216,-2.9375,0.003022167
60341.6044,13.8125,71.1875,13.86915,-3.75,0.003036183
60341.6069,13.75,71.1875,10.97945,-3.375,0.003056428
60341.6094,13.9375,71.25,9.211808,-3.3125,0.003059542
60341.6119,13.75,71.1875,8.780361,-3.25,0.003033068
60341.6144,13.875,71.125,9.61853,-3.25,0.003015938
60341.6169,14.0,71.25,11.39831,-3.3125,0.003022167
60341.6194,13.8125,71.0625,13.62875,-3.1875,0.003039297
60341.6219,13.75,71.0,15.79841,-3.0625,0.003053313
60341.6244,13.875,70.75,17.51182,-3.1875,0.003026839
60341.6269,13.875,70.75,18.57497,-3.4375,0.003008151
60341.6294,13.875,70.375,19.00535,-3.6875,0.003017495
60341.6319,13.8125,70.1875,18.97218,-3.375,0.003043969
60341.6344,13.75,70.125,18.69772,-3.0625,0.003057985
60341.6369,13.875,69.8125,18.36209,-3.6875,0.003034625
60341.6394,14.0625,69.375,18.0478,-3.6875,0.003019052
60341.6419,14.0625,68.9375,17.73902,-3.1875,0.003033068
60341.6444,14.0625,68.875,17.36581,-3.125,0.003070443
60341.6469,14.0,68.4375,16.86471,-2.8125,0.003068886
60341.6494,13.8125,67.9375,16.2248,-3.0,0.003028396
60341.6519,13.9375,67.6875,15.49897,-2.9375,0.003031511
60341.6544,14.0625,67.125,14.78087,-3.375,0.003033068
60341.6569,14.0,66.75,14.16356,-3.3125,0.003048641
60341.6594,13.875,66.1875,13.70298,-3.4375,0.003048641
60341.6619,13.8125,65.625,13.40384,-3.3125,0.003029954
60341.6644,14.0,65.0625,13.23038,-3.0625,0.003040855
60341.6669,14.0,64.4375,13.13042,-3.4375,0.003056428
60341.6694,14.0625,64.0,13.05693,-3.375,0.003070443
60341.6719,13.9375,63.375,12.97551,-3.5,0.003064214
60341.6744,13.875,62.6875,12.85896,-3.125,0.003045527
60341.6769,13.9375,62.0,12.67901,-3.125,0.003051756
60341.6794,14.0625,61.375,12.40722,-3.6875,0.003059542
60341.6819,14.0,60.6875,12.02929,-3.8125,0.003053313
60341.6844,14.0625,60.25,11.56312,-3.875,0.003043969
60341.6869,13.9375,59.5625,11.066,-3.5625,0.003050198
60341.6894,13.9375,59.0,10.61861,-3.125,0.003059542
60341.6919,13.8125,58.5,10.28816,-2.6875,0.003067329
60341.6944,13.875,57.9375,10.08743,-2.5625,0.003072001
60341.6969,14.0625,57.5,9.955709,-2.5625,0.003053313
60341.6994,14.0,57.125,9.778705,-2.875,0.003045527
60341.7019,13.875,56.625,9.445276,-3.125,0.003057985
60341.7044,14.0,56.3125,8.913721,-2.875,0.003064214
60341.7069,14.0625,55.875,8.251074,-3.4375,0.003068886
60341.7094,14.0625,55.6875,7.617614,-3.625,0.003043969
60341.7119,14.0625,55.375,7.196174,-3.8125,0.003045527
60341.7144,14.0,54.875,7.098369,-3.8125,0.003067329
60341.7169,13.9375,54.5,7.295553,-3.5,0.003090688
60341.7194,14.125,54.125,7.616608,-3.4375,0.003064214
60341.7219,14.125,53.8125,7.821761,-3.25,0.003029954
60341.7244,14.0625,53.375,7.720604,-3.375,0.003040855
60341.7269,14.3125,53.0625,7.275613,-3.5,0.003062657
60341.7294,14.25,53.0,6.631999,-3.5625,0.003068886
60341.7319,14.1875,52.375,6.055046,-3.375,0.0030611
60341.7344,14.125,52.0625,5.79879,-3.1875,0.003039297
60341.7369,14.125,51.625,5.970468,-3.4375,0.003048641
60341.7394,14.125,51.25,6.462832,-3.5625,0.003056428
60341.7419,14.1875,51.125,6.993023,-3.9375,0.00305487
60341.7444,14.375,50.8125,7.233895,-3.9375,0.003057985
60341.7469,14.3125,50.4375,6.972807,-3.1875,0.00303774
60341.7494,14.3125,50.25,6.217929,-3.375,0.003028396
60341.7519,14.125,49.875,5.19628,-3.5625,0.003043969
60341.7544,14.0625,49.6875,4.241376,-3.1875,0.003042412
60341.7569,14.3125,49.4375,3.628839,-3.4375,0.003036183
60341.7594,14.25,49.1875,3.443838,-3.9375,0.003028396
60341.7619,14.4375,48.9375,3.548882,-3.8125,0.0030611
60341.7644,14.375,48.8125,3.667788,-3.875,0.003064214
60341.7669,14.25,48.6875,3.539837,-3.875,0.003033068
60341.7694,14.1875,48.3125,3.061155,-3.875,0.003003479
60341.7719,14.4375,48.1875,2.337506,-3.8125,0.003000365
60341.7744,14.4375,48.0,1.620663,-3.6875,0.003028396
60341.7769,14.4375,47.875,1.163938,-3.75,0.003034625
60341.7794,14.375,47.5,1.077139,-3.8125,0.003034625
60341.7819,14.3125,47.625,1.261495,-3.625,0.003023724
60341.7844,14.4375,47.3125,1.462119,-3.125,0.0030611
60341.7869,14.4375,47.125,1.410567,-3.5625,0.003106261
60341.7894,14.625,47.0,0.979918,-3.25,0.003093803
60341.7919,14.5,46.8125,0.2657476,-3.375,0.003093803
60341.7944,14.4375,46.6875,-0.4547387,-3.6875,0.003090688
60341.7969,14.3125,46.5,-0.8668854,-3.375,0.003098475
60341.7994,14.4375,46.25,-0.7897272,-3.25,0.003145194
60341.8019,14.5,46.25,-0.280962,-3.25,0.003154538
60341.8044,14.625,46.0,0.3836038,-3.375,0.003146751
60341.8069,14.625,45.875,0.848955,-2.875,0.003132735
60341.8094,14.6875,45.75,0.8661705,-2.75,0.003110933
60341.8119,14.5,45.5,0.4244406,-2.625,0.003104704
60341.8144,14.5,45.375,-0.2419533,-2.4375,0.003098475
60341.8169,14.5625,45.3125,-0.777395,-2.875,0.003075115
60341.8194,14.5625,45.0625,-0.8944907,-3.25,0.003023724
60341.8219,14.5625,44.9375,-0.5272557,-2.875,0.003012823
60341.8244,14.625,44.875,0.1356174,-3.0,0.003008151
60341.8269,14.625,44.6875,0.7564375,-3.25,0.003003479
60341.8294,14.75,44.625,1.035735,-3.3125,0.002994136
60341.8319,14.625,44.4375,0.8780391,-3.3125,0.002981677
60341.8344,14.4375,44.125,0.4438957,-3.1875,0.002998808
60341.8369,14.5,44.25,0.05773377,-3.0,0.003003479
60341.8394,14.5625,43.9375,0.02135939,-2.9375,0.002992578
60341.8419,14.625,43.8125,0.4367008,-2.9375,0.002992578
60341.8444,14.5625,43.875,1.139308,-2.75,0.002995693
60341.8469,14.5625,43.5625,1.783783,-3.25,0.003026839
60341.8494,14.5625,43.5625,2.03719,-3.1875,0.003008151
60341.8519,14.4375,43.375,1.774143,-3.0,0.002989464
60341.8544,14.625,43.25,1.161767,-3.0,0.002992578
60341.8569,14.5625,43.125,0.5810115,-3.375,0.003001922
60341.8594,14.5,43.0,0.4212792,-3.25,0.003028396
60341.8619,14.625,42.9375,0.858569,-3.5,0.003017495
60341.8644,14.4375,42.75,1.741437,-3.5625,0.002998808
60341.8669,14.5,42.8125,2.6544,-3.6875,0.002995693
60341.8694,14.5625,42.75,3.131538,-3.3125,0.003001922
60341.8719,14.5625,42.75,2.909631,-3.375,0.003019052
60341.8744,14.5,42.5625,2.082716,-3.25,0.002969219
60341.8769,14.5625,42.375,1.069672,-2.875,0.002892911
60341.8794,14.4375,42.375,0.4053707,-3.25,0.00285865
60341.8819,14.75,42.375,0.4630153,-3.25,0.002883567
60341.8844,14.625,42.1875,1.254069,-3.0,0.00289914
60341.8869,14.5,42.25,2.414134,-3.1875,0.002903812
60341.8894,14.4375,42.25,3.383928,-3.3125,0.002916271
60341.8919,14.375,42.0,3.689973,-3.3125,0.00286488
60341.8944,14.5625,41.9375,3.176816,-3.625,0.002889796
60341.8969,14.5,42.0,2.068192,-3.6875,0.002874223
60341.8994,14.5,41.8125,0.8315268,-3.875,0.002796358
60341.9019,14.5625,41.6875,-0.07607076,-3.875,0.002797916
60341.9044,14.5,41.625,-0.4399059,-3.3125,0.002825947
60341.9069,14.4375,41.5625,-0.3705448,-3.5625,0.002896026
60341.9094,14.5,41.75,-0.2011606,-3.1875,0.002934958
60341.9119,14.4375,41.5,-0.2636175,-3.5625,0.002958318
60341.9144,14.5,41.3125,-0.6823924,-3.5,0.002970776
60341.9169,14.3125,41.3125,-1.306507,-3.3125,0.002961432
60341.9194,14.5,41.3125,-1.81914,-3.375,0.002967662
60341.9219,14.6875,41.25,-1.959109,-3.875,0.002961432
60341.9244,14.5625,41.3125,-1.717813,-3.5625,0.002945859
60341.9269,14.4375,41.0,-1.3842,-3.4375,0.002958318
60341.9294,14.5,41.0,-1.401198,-3.1875,0.002969219
60341.9319,14.5,40.9375,-2.101426,-2.9375,0.002966104
60341.9344,14.5,40.8125,-3.470532,-3.0625,0.002933401
60341.9369,14.5,40.75,-5.079634,-3.1875,0.002934958
60341.9394,14.4375,40.8125,-6.240957,-3.0,0.002958318
60341.9419,14.4375,40.5625,-6.320486,-3.3125,0.002966104
60341.9444,14.3125,40.5625,-5.051326,-3.25,0.00295676
60341.9469,14.4375,40.5,-2.681972,-3.3125,0.002944302
60341.9494,14.4375,40.5,0.123576,-3.75,0.002944302
60341.9519,14.4375,40.4375,2.590423,-3.0625,0.002955203
60341.9544,14.5,40.25,4.192533,-2.8125,0.002958318
60341.9569,14.375,40.0625,4.888788,-2.9375,0.002952089
60341.9594,14.5625,40.1875,5.119993,-3.1875,0.002941187
60341.9619,14.375,40.125,5.573332,-3.8125,0.002934958
60341.9644,14.125,40.125,6.837611,-4.0625,0.002942745
60341.9669,14.375,39.875,9.123212,-4.3125,0.002955203
60341.9694,14.4375,40.0,12.18121,-3.875,0.002950531
60341.9719,14.4375,39.875,15.45006,-3.8125,0.002927172
60341.9744,14.3125,39.75,18.34279,-3.8125,0.002924057
60341.9769,14.375,39.75,20.52273,-3.8125,0.002931844
60341.9794,14.3125,39.8125,22.03234,-3.625,0.002950531
60341.9819,14.25,39.75,23.22261,-3.625,0.002950531
60341.9844,14.25,39.625,24.53614,-4.4375,0.002916271
60341.9869,14.4375,39.625,26.2665,-4.125,0.002925614
60341.9894,14.0625,39.5625,28.41756,-4.5,0.002945859
60341.9919,14.0625,39.5625,30.72545,-3.4375,0.002944302
60341.9944,14.0625,39.4375,32.81711,-3.1875,0.002934958
60341.9969,14.25,39.375,34.41231,-3.5,0.002913156
60341.9994,14.1875,39.25,35.46183,-3.875,0.002914713
60342.0019,13.9375,39.25,36.15858,-4.0,0.002919385
60342.0044,14.0,39.25,36.82752,-3.9375,0.002928729
60342.0069,14.125,39.0625,37.76194,-3.75,0.002910041
60342.0094,14.0,39.125,39.09291,-3.8125,0.002902255
60342.0119,13.9375,39.0,40.75232,-3.8125,0.002914713
60342.0144,14.0,38.9375,42.53507,-3.5,0.002924057
60342.0169,13.9375,39.0,44.216,-3.4375,0.002914713
60342.0194,13.8125,38.8125,45.65619,-3.625,0.002885125
60342.0219,13.6875,38.75,46.84745,-3.4375,0.002875781
60342.0244,13.75,38.6875,47.8833,-3.25,0.002897583
60342.0269,13.75,38.625,48.88337,-3.25,0.002892911
60342.0294,13.9375,38.625,49.91852,-3.3125,0.002883567
60342.0319,13.8125,38.5625,50.97583,-3.375,0.002847749
60342.0344,13.8125,38.5,51.97544,-3.375,0.002849307
60342.0369,13.6875,38.8125,52.82287,-3.375,0.002886682
60342.0394,13.75,38.75,53.46331,-3.625,0.002880453
60342.0419,13.6875,39.0,53.90878,-3.4375,0.002863322
60342.0444,13.75,39.0625,54.22709,-3.25,0.002857093
60342.0469,13.875,39.375,54.50297,-3.125,0.002857093
60342.0494,13.75,39.75,54.79487,-3.125,0.002867994
60342.0519,13.6875,40.25,55.10912,-3.3125,0.002863322
60342.0544,13.8125,41.0,55.40219,-3.4375,0.002847749
60342.0569,13.5625,42.0625,55.60601,-3.3125,0.002833734
60342.0594,13.75,43.0,55.66177,-3.6875,0.002825947
60342.0619,13.6875,44.125,55.54564,-3.125,0.002836848
60342.0644,13.6875,45.0,55.27707,-3.4375,0.002863322
60342.0669,13.75,45.875,54.90865,-3.6875,0.002853979
60342.0694,13.75,46.875,54.50469,-3.4375,0.002839963
60342.0719,13.75,47.5625,54.11888,-3.0,0.002860208
60342.0744,13.6875,48.375,53.77907,-2.9375,0.002891354
60342.0769,13.625,49.3125,53.48319,-3.125,0.002910041
60342.0794,13.8125,50.0,53.20647,-3.25,0.002911599
60342.0819,13.8125,50.8125,52.91571,-3.125,0.0029225
60342.0844,13.6875,51.125,52.58519,-3.3125,0.002953646
60342.0869,13.75,52.125,52.20783,-3.25,0.002984792
60342.0894,13.5,52.75,51.79704,-3.1875,0.002998808
60342.0919,13.5,53.5,51.37881,-3.4375,0.003012823
60342.0944,13.75,54.125,50.97736,-3.875,0.00305487
60342.0969,13.6875,54.875,50.6008,-3.6875,0.003101589
60342.0994,13.6875,55.5625,50.23472,-3.8125,0.003117162
60342.1019,13.625,56.4375,49.84777,-3.625,0.003120277
60342.1044,13.6875,57.3125,49.40865,-4.125,0.003138965
60342.1069,13.625,58.25,48.90677,-4.0,0.003146751
60342.1094,13.5625,59.1875,48.3651,-3.875,0.003171668
60342.1119,13.5625,60.25,47.8386,-3.5,0.003168553
60342.1144,13.625,60.9375,47.39674,-3.9375,0.003145194
60342.1169,13.625,61.5625,47.0969,-3.75,0.00311249
60342.1194,13.75,62.3125,46.96053,-3.5625,0.003109376
60342.1219,13.5625,63.0625,46.96357,-3.375,0.003121834
60342.1244,13.5,63.5625,47.04577,-3.0625,0.003104704
60342.1269,13.4375,64.375,47.13442,-3.375,0.003057985
60342.1294,13.4375,65.0,47.16925,-3.3125,0.003036183
60342.1319,13.5625,65.4375,47.11725,-3.875,0.003047084
60342.1344,13.6875,66.0,46.9712,-3.75,0.0030611
60342.1369,13.6875,66.6875,46.73421,-3.5625,0.003034625
60342.1394,13.625,67.3125,46.40163,-3.625,0.003026839
60342.1419,13.5625,67.875,45.95372,-3.3125,0.003012823
60342.1444,13.5,68.1875,45.36532,-3.6875,0.00303774
60342.1469,13.4375,68.6875,44.62814,-4.0625,0.003042412
60342.1494,13.75,68.9375,43.77095,-3.5,0.003023724
60342.1519,13.6875,69.4375,42.86021,-3.5625,0.003011266
60342.1544,13.5,69.6875,41.97202,-3.5625,0.003003479
60342.1569,13.5625,69.875,41.14153,-3.375,0.003011266
60342.1594,13.5,70.25,40.31208,-3.5,0.003025282
60342.1619,13.5,70.375,39.31563,-3.875,0.003028396
60342.1644,13.5,70.625,37.90601,-3.375,0.003023724
60342.1669,13.6875,71.0,35.84457,-3.3125,0.003015938
60342.1694,13.6875,71.0,33.01189,-3.125,0.003023724
60342.1719,13.625,71.1875,29.50028,-2.9375,0.003026839
60342.1744,13.4375,71.25,25.64154,-2.9375,0.003017495
60342.1769,13.5,71.25,21.94683,-3.3125,0.003022167
60342.1794,13.5,71.4375,18.97065,-3.125,0.003028396
60342.1819,13.6875,71.5625,17.1457,-3.4375,0.003039297
60342.1844,13.5625,71.4375,16.65082,-2.9375,0.003025282
60342.1869,13.625,71.4375,17.36415,-3.0625,0.003009709
60342.1894,13.625,71.375,18.91936,-3.0625,0.003022167
60342.1919,13.5,71.1875,20.84023,-3.375,0.003031511
60342.1944,13.625,71.0,22.69631,-3.375,0.003045527
60342.1969,13.6875,70.9375,24.21751,-3.6875,0.003028396
60342.1994,13.4375,70.6875,25.32666,-3.3125,0.003019052
60342.2019,13.5,70.5625,26.09054,-3.25,0.003026839
60342.2044,13.5625,70.375,26.62621,-3.375,0.003036183
60342.2069,13.5625,70.125,27.01591,-3.6875,0.003053313
60342.2094,13.5625,69.9375,27.27169,-3.875,0.003036183
60342.2119,13.5625,69.625,27.35811,-3.5,0.003026839
60342.2144,13.5,69.1875,27.24804,-3.4375,0.003029954
60342.2169,13.4375,68.8125,26.96915,-3.0,0.003053313
60342.2194,13.5625,68.75,26.60815,-3.5625,0.003065771
60342.2219,13.375,68.375,26.26854,-3.4375,0.003026839
60342.2244,13.3125,67.75,26.00919,-3.3125,0.003014381
60342.2269,13.5625,67.25,25.80485,-3.125,0.003026839
60342.2294,13.625,66.875,25.55831,-3.375,0.0030611
60342.2319,13.4375,66.375,25.16151,-2.5625,0.003075115
60342.2344,13.5,65.875,24.57167,-2.3125,0.003034625
60342.2369,13.4375,65.3125,23.85503,-2.6875,0.003019052
60342.2394,13.5,65.0625,23.16686,-2.6875,0.003031511
60342.2419,13.4375,64.1875,22.67349,-2.5,0.0030611
60342.2444,13.3125,63.5,22.45802,-2.75,0.003076673
60342.2469,13.4375,62.8125,22.4648,-2.8125,0.003059542
60342.2494,13.4375,62.3125,22.51981,-2.625,0.003053313
60342.2519,13.625,61.4375,22.42191,-2.625,0.00305487
60342.2544,13.3125,61.0625,22.05708,-3.0,0.003056428
60342.2569,13.25,60.3125,21.47005,-3.375,0.003051756
60342.2594,13.4375,59.75,20.84785,-3.3125,0.003045527
60342.2619,13.4375,59.0,20.41927,-3.25,0.003068886
60342.2644,13.4375,58.625,20.3221,-3.125,0.003072001
60342.2669,13.375,57.875,20.51441,-3.0625,0.003067329
60342.2694,13.3125,57.0,20.78362,-3.0625,0.003033068
60342.2719,13.1875,57.0,20.85632,-3.3125,0.003033068
60342.2744,13.25,56.6875,20.55256,-3.375,0.003059542
60342.2769,13.25,56.4375,19.89932,-3.4375,0.003067329
60342.2794,13.4375,56.0,19.13434,-3.3125,0.003070443
60342.2819,13.6875,55.625,18.59036,-3.1875,0.003039297
60342.2844,13.5,54.6875,18.5174,-3.75,0.003036183
60342.2869,12.75,54.75,18.93676,-3.8125,0.00305487
60342.2894,12.4375,54.875,19.60999,-3.9375,0.003062657
60342.2919,13.1875,54.1875,20.14921,-4.125,0.003067329
60342.2944,14.6875,53.5,20.21482,-3.5625,0.003034625
60342.2969,15.1875,53.0,19.70024,-3.3125,0.003036183
60342.2994,14.125,52.625,18.80133,-3.25,0.003072001
60342.3019,12.1875,52.125,17.93063,-3.5625,0.003067329
60342.3044,11.1875,51.6875,17.51174,-3.25,0.003056428
60342.3069,12.125,52.125,17.75626,-3.3125,0.003022167
60342.3094,14.125,52.3125,18.5399,-3.6875,0.003033068
60342.3119,15.1875,51.75,19.44468,-3.5625,0.003067329
60342.3144,14.625,50.625,19.95049,-3.8125,0.003065771
60342.3169,13.4375,50.125,19.6868,-3.75,0.0030611
60342.3194,12.3125,49.875,18.61785,-3.375,0.003034625
60342.3219,12.1875,49.75,17.0702,-3.3125,0.003031511
60342.3244,13.1875,49.25,15.58789,-3.625,0.003057985
60342.3269,13.75,49.125,14.68401,-3.6875,0.003070443
60342.3294,13.75,49.0625,14.60938,-3.5,0.003056428
60342.3319,13.5625,49.25,15.247,-3.6875,0.003042412
60342.3344,13.0625,49.125,16.17911,-3.1875,0.003043969
60342.3369,12.9375,48.625,16.88989,-3.6875,0.003065771
60342.3394,13.125,48.0,17.00355,-4.0,0.003057985
60342.3419,13.1875,47.8125,16.44473,-3.1875,0.003042412
60342.3444,13.3125,47.6875,15.44985,-3.25,0.003028396
60342.3469,13.0625,47.5,14.43226,-3.5625,0.003051756
60342.3494,13.0,46.9375,13.77363,-2.8125,0.003068886
60342.3519,13.1875,47.0,13.64587,-3.3125,0.003050198
60342.3544,13.125,46.8125,13.9471,-3.3125,0.003034625
60342.3569,13.3125,46.75,14.37597,-3.1875,0.003067329
60342.3594,13.25,46.3125,14.59925,-3.5625,0.003129621
60342.3619,13.0,46.1875,14.42438,-3.4375,0.00315298
60342.3644,12.9375,46.0625,13.88982,-3.5625,0.003149866
60342.3669,13.1875,45.875,13.23094,-3.75,0.003132735
60342.3694,13.625,45.8125,12.74449,-3.75,0.003146751
60342.3719,13.5625,45.75,12.6263,-3.125,0.003190355
60342.3744,13.25,45.4375,12.8685,-3.5625,0.003188798
60342.3769,12.9375,45.1875,13.27059,-3.875,0.003181012
60342.3794,12.75,45.125,13.5567,-3.5,0.003163881
60342.3819,13.1875,45.0625,13.53468,-3.4375,0.003166996
60342.3844,13.5,44.8125,13.20874,-4.0,0.003177897
60342.3869,13.5625,44.4375,12.78257,-3.625,0.003145194
60342.3894,13.3125,44.375,12.54751,-3.6875,0.003109376
60342.3919,12.75,44.125,12.71626,-3.5625,0.003081344
60342.3944,12.625,44.0625,13.29441,-3.6875,0.003065771
60342.3969,12.75,44.0625,14.06506,-3.4375,0.003072001
60342.3994,13.125,44.0625,14.70096,-2.9375,0.003045527
60342.4019,13.25,44.125,14.94714,-3.1875,0.003025282
60342.4044,13.25,43.875,14.77324,-2.4375,0.00302061
60342.4069,12.875,43.75,14.40543,-2.3125,0.003028396
60342.4094,12.9375,43.5,14.21122,-2.1875,0.003033068
60342.4119,12.9375,43.375,14.4934,-2.6875,0.003029954
60342.4144,12.875,43.0,15.30566,-3.0625,0.003031511
60342.4169,13.0625,42.8125,16.39818,-3.0,0.003026839
60342.4194,13.0625,42.75,17.33544,-3.0625,0.003026839
60342.4219,13.0,42.4375,17.73164,-3.375,0.00302061
60342.4244,12.9375,42.5625,17.47745,-3.3125,0.003022167
60342.4269,12.9375,42.25,16.82726,-3.5,0.00302061
60342.4294,12.8125,42.1875,16.28463,-3.1875,0.003017495
60342.4319,12.8125,42.125,16.3345,-3.25,0.003034625
60342.4344,12.9375,42.0,17.16139,-3.4375,0.003023724
60342.4369,12.75,42.0625,18.51069,-3.625,0.003014381
60342.4394,12.5,41.9375,19.78244,-3.1875,0.003019052
60342.4419,12.8125,41.6875,20.32261,-3.25,0.003025282
60342.4444,12.875,41.8125,19.76572,-3.1875,0.003029954
60342.4469,12.9375,41.75,18.24601,-3.0625,0.002961432
60342.4494,12.75,41.625,16.35611,-2.9375,0.002874223
60342.4519,12.625,41.4375,14.86428,-3.0625,0.00285865
60342.4544,12.4375,41.25,14.33215,-3.0625,0.002878895
60342.4569,12.5,41.3125,14.83145,-3.125,0.002894468
60342.4594,12.6875,41.4375,15.91017,-3.375,0.002919385
60342.4619,12.6875,41.1875,16.82881,-3.1875,0.002945859
60342.4644,12.5,41.0625,16.93941,-3.3125,0.002903812
60342.4669,12.5,40.9375,16.00716,-3.6875,0.002894468
60342.4694,12.5,41.0625,14.30713,-3.9375,0.002878895
60342.4719,12.5,40.875,12.45211,-3.9375,0.002816603
60342.4744,12.5625,40.6875,11.05281,-3.625,0.002816603
60342.4769,12.4375,40.625,10.40325,-3.0625,0.002852421
60342.4794,12.6875,40.5,10.36054,-2.8125,0.002920942
60342.4819,12.5625,40.5625,10.4787,-2.75,0.002964547
60342.4844,12.5625,40.5,10.30504,-3.4375,0.002953646
60342.4869,12.625,40.625,9.660562,-3.4375,0.002969219
60342.4894,12.6875,40.5625,8.741189,-3.6875,0.002973891
60342.4919,12.6875,40.4375,7.98135,-3.125,0.002989464
60342.4944,12.75,40.375,7.766183,-3.375,0.002991021
60342.4969,12.5625,40.125,8.171164,-2.75,0.002969219
60342.4994,12.5625,40.0625,8.886766,-2.75,0.002973891
60342.5019,12.5625,40.125,9.384595,-3.125,0.00298012
60342.5044,12.625,39.9375,9.23512,-3.125,0.002986349
60342.5069,12.5,39.9375,8.393116,-3.3125,0.00298012
60342.5094,12.5625,39.8125,7.279647,-3.25,0.002966104
60342.5119,12.75,39.6875,6.599722,-2.9375,0.002981677
60342.5144,12.4375,39.6875,6.984612,-3.1875,0.00298012
60342.5169,12.4375,39.6875,8.652418,-2.9375,0.002995693
60342.5194,12.5,39.625,11.27345,-3.0,0.002987906
60342.5219,12.6875,39.6875,14.12005,-3.0,0.002969219
60342.5244,12.5625,39.5,16.42702,-2.375,0.002981677
60342.5269,12.4375,39.375,17.77322,-2.6875,0.003000365
60342.5294,12.5,39.25,18.28343,-2.3125,0.002994136
60342.5319,12.5,39.25,18.54723,-2.8125,0.002972333
60342.5344,12.5,39.125,19.30284,-2.875,0.002964547
60342.5369,12.5625,38.9375,21.05652,-2.4375,0.00298012
60342.5394,12.6875,39.25,23.83682,-2.125,0.002998808
60342.5419,12.5625,39.0625,27.20356,-2.1875,0.002992578
60342.5444,12.5,39.125,30.49281,-2.625,0.002955203
60342.5469,12.5625,39.0,33.15693,-2.5625,0.002959875
60342.5494,12.3125,39.0,35.01588,-3.4375,0.002977005
60342.5519,12.375,38.875,36.29645,-3.6875,0.002989464
60342.5544,12.375,38.8125,37.45766,-3.1875,0.002986349
60342.5569,12.25,38.6875,38.91301,-2.625,0.002952089
60342.5594,12.3125,38.625,40.80731,-2.8125,0.002948974
60342.5619,12.25,38.8125,42.96394,-2.5,0.002972333
60342.5644,12.3125,38.625,45.01596,-2.75,0.002977005
60342.5669,12.1875,38.5625,46.63329,-2.5,0.002969219
60342.5694,12.125,38.5625,47.71207,-2.25,0.00293963
60342.5719,12.0,38.25,48.42522,-2.5,0.00293963
60342.5744,12.0625,38.25,49.11514,-2.4375,0.002942745
60342.5769,12.0625,38.3125,50.09955,-2.625,0.002942745
60342.5794,12.1875,38.125,51.50403,-2.75,0.002950531
60342.5819,12.125,38.0,53.2107,-2.8125,0.00293963
60342.5844,12.0625,38.0,54.94246,-2.8125,0.002927172
60342.5869,12.0,38.0625,56.42552,-2.75,0.002924057
60342.5894,11.875,38.0,57.53453,-2.875,0.002927172
60342.5919,11.875,38.0,58.3427,-2.75,0.0029225
60342.5944,11.8125,38.0,59.05744,-2.9375,0.002916271
60342.5969,11.75,37.8125,59.88709,-3.0625,0.0029225
60342.5994,12.0,37.75,60.91881,-2.5,0.002913156
60342.6019,11.9375,37.75,62.07412,-2.8125,0.002911599
60342.6044,11.875,37.8125,63.16109,-2.9375,0.002886682
60342.6069,11.8125,37.75,63.98643,-2.6875,0.002889796
60342.6094,11.8125,37.875,64.46144,-2.875,0.002924057
60342.6119,11.8125,37.8125,64.64426,-2.6875,0.002913156
60342.6144,11.8125,38.125,64.70059,-2.625,0.002888239
60342.6169,11.9375,38.375,64.81085,-2.4375,0.002871109
60342.6194,11.9375,38.625,65.07751,-2.5625,0.002878895
60342.6219,11.9375,39.1875,65.48157,-2.375,0.002902255
60342.6244,12.0625,39.6875,65.90586,-2.3125,0.002897583
60342.6269,11.875,40.375,66.20582,-2.3125,0.002888239
60342.6294,12.0,41.0625,66.28561,-3.0625,0.002880453
60342.6319,12.0625,41.875,66.13962,-3.0,0.002880453
60342.6344,11.9375,42.75,65.84339,-2.5,0.002906927
60342.6369,11.75,43.8125,65.50549,-2.875,0.002892911
60342.6394,11.6875,44.75,65.21073,-3.0625,0.002889796
60342.6419,12.0,45.8125,64.98483,-2.875,0.002875781
60342.6444,12.125,46.375,64.79547,-2.375,0.00289914
60342.6469,12.125,47.0625,64.5827,-2.5625,0.002936516
60342.6494,12.0625,47.875,64.29712,-2.625,0.002944302
60342.6519,11.8125,48.5,63.92513,-2.9375,0.00293963
60342.6544,11.8125,49.1875,63.48993,-3.0625,0.002950531
60342.6569,11.875,49.875,63.03271,-3.3125,0.002998808
60342.6594,11.9375,50.4375,62.58756,-2.5,0.003015938
60342.6619,12.0,51.3125,62.16425,-2.875,0.003051756
60342.6644,12.0625,51.9375,61.74645,-2.875,0.003073558
60342.6669,11.9375,52.75,61.30401,-2.75,0.003100032
60342.6694,12.0,53.375,60.81007,-3.0,0.003143636
60342.6719,12.0625,54.25,60.25367,-3.4375,0.003149866
60342.6744,12.0625,54.9375,59.64296,-3.0,0.003154538
60342.6769,12.1875,56.0,59.00091,-3.125,0.003185684
60342.6794,12.0625,56.8125,58.35839,-3.3125,0.003187241
60342.6819,11.875,57.75,57.74875,-3.25,0.003188798
60342.6844,11.9375,58.625,57.2056,-3.1875,0.00319347
60342.6869,12.0625,59.3125,56.76087,-3.0,0.003160767
60342.6894,11.9375,60.1875,56.44091,-3.0625,0.003157652
60342.6919,12.0625,60.6875,56.25981,-2.9375,0.003156095
60342.6944,12.0,61.5625,56.21009,-2.6875,0.003171668
60342.6969,11.9375,62.3125,56.25771,-3.0625,0.003138965
60342.6994,12.0,62.875,56.34568,-2.8125,0.003107819
60342.7019,11.9375,63.6875,56.40631,-2.875,0.003101589
60342.7044,12.0625,64.25,56.37896,-2.9375,0.003104704
60342.7069,12.1875,64.8125,56.22566,-3.1875,0.003121834
60342.7094,11.9375,65.375,55.93795,-2.9375,0.003100032
60342.7119,12.0625,66.0625,55.53223,-3.4375,0.003073558
60342.7144,11.9375,66.4375,55.03726,-3.1875,0.003072001
60342.7169,11.9375,66.75,54.47789,-3.125,0.003087574
60342.7194,12.0,67.3125,53.86339,-3.3125,0.003093803
60342.7219,12.0625,67.5625,53.18539,-3.6875,0.003073558
60342.7244,12.0625,68.125,52.42249,-3.75,0.003068886
60342.7269,12.0625,68.375,51.54586,-3.5,0.003065771
60342.7294,12.1875,68.75,50.51952,-3.6875,0.003081344
60342.7319,12.1875,69.125,49.29412,-3.625,0.003092246
60342.7344,12.125,69.3125,47.80029,-3.625,0.003067329
60342.7369,12.25,69.375,45.95147,-4.125,0.003065771
60342.7394,12.25,69.5625,43.66541,-3.9375,0.003059542
60342.7419,12.1875,69.625,40.90514,-3.625,0.003079787
60342.7444,12.0625,69.8125,37.7275,-3.5,0.003079787
60342.7469,12.1875,69.875,34.31864,-3.8125,0.003059542
60342.7494,12.0625,70.125,30.99414,-3.625,0.0030611
60342.7519,12.1875,70.25,28.15185,-3.3125,0.003057985
60342.7544,12.1875,70.125,26.18275,-3.3125,0.003086016
60342.7569,12.125,70.125,25.36529,-3.4375,0.003082902
60342.7594,12.25,70.25,25.7781,-3.0,0.003068886
60342.7619,12.375,70.125,27.26446,-3.25,0.003067329
60342.7644,12.0,69.9375,29.46486,-3.3125,0.003082902
60342.7669,12.1875,70.0625,31.90917,-2.875,0.003079787
60342.7694,11.9375,69.75,34.1389,-3.1875,0.0030611
60342.7719,12.0625,69.4375,35.81894,-2.9375,0.003034625
60342.7744,12.0,69.125,36.803,-3.1875,0.003053313
60342.7769,11.9375,69.0,37.13565,-3.375,0.003068886
60342.7794,12.0625,68.75,36.99648,-2.9375,0.003070443
60342.7819,12.0625,68.5,36.61219,-3.0625,0.003050198
60342.7844,12.125,68.25,36.1704,-3.25,0.003036183
60342.7869,12.1875,68.125,35.76519,-3.5625,0.003050198
60342.7894,12.1875,67.75,35.38939,-3.5625,0.003067329
60342.7919,12.1875,67.25,34.96981,-3.4375,0.003064214
60342.7944,12.1875,66.9375,34.42545,-3.8125,0.003028396
60342.7969,12.125,66.4375,33.722,-3.6875,0.003023724
60342.7994,12.0,66.0625,32.89872,-3.3125,0.003036183
60342.8019,12.1875,65.4375,32.05673,-3.0625,0.003048641
60342.8044,12.0625,65.0,31.31441,-3.0,0.003048641
60342.8069,12.0625,64.6875,30.75029,-3.25,0.003033068
60342.8094,12.125,64.25,30.36221,-3.4375,0.003023724
60342.8119,12.25,63.375,30.06428,-3.0625,0.003039297
60342.8144,12.125,62.9375,29.72636,-3.375,0.003057985
60342.8169,12.125,62.5,29.2395,-2.75,0.003051756
60342.8194,12.125,61.8125,28.57658,-2.875,0.003029954
60342.8219,12.0,61.0625,27.81559,-2.8125,0.003028396
60342.8244,11.9375,60.5,27.11012,-3.3125,0.003040855
60342.8269,12.0625,59.875,26.616,-3.0,0.003051756
60342.8294,12.0625,59.375,26.40919,-3.4375,0.0030611
60342.8319,12.1875,58.625,26.43892,-3.3125,0.003045527
60342.8344,12.0625,58.0625,26.54422,-3.5625,0.00305487
60342.8369,11.9375,57.5625,26.53186,-3.125,0.003064214
60342.8394,12.125,56.875,26.2783,-3.5,0.003068886
60342.8419,12.0625,56.4375,25.801,-2.875,0.003064214
60342.8444,12.0,55.9375,25.2581,-2.6875,0.003056428
60342.8469,12.125,55.6875,24.86963,-2.6875,0.003068886
60342.8494,12.125,55.25,24.79521,-3.0,0.003086016
60342.8519,12.0625,54.8125,25.03588,-3.1875,0.003084459
60342.8544,12.1875,54.375,25.4169,-3.1875,0.00305487
60342.8569,12.0,54.0625,25.66829,-3.0625,0.003051756
60342.8594,12.0,53.625,25.56719,-2.75,0.00307823
60342.8619,12.0,53.375,25.06835,-2.75,0.003086016
60342.8644,12.0625,53.125,24.34702,-2.9375,0.003075115
60342.8669,12.125,52.6875,23.72321,-2.75,0.003039297
60342.8694,12.125,52.125,23.49557,-2.875,0.003048641
60342.8719,12.0625,51.75,23.7715,-3.0625,0.003089131
60342.8744,12.0,51.6875,24.38524,-3.1875,0.003082902
60342.8769,12.1875,51.1875,24.95477,-3.375,0.003065771
60342.8794,12.125,50.8125,25.06104,-3.5625,0.003056428
60342.8819,12.1875,50.5625,24.4634,-3.0625,0.0030611
60342.8844,12.3125,50.375,23.23986,-2.9375,0.003087574
60342.8869,12.375,50.0625,21.77798,-2.75,0.003093803
60342.8894,12.3125,49.75,20.60905,-2.75,0.003075115
60342.8919,12.1875,49.25,20.16177,-3.0,0.003051756
60342.8944,12.0625,49.0625,20.55536,-2.8125,0.003056428
60342.8969,11.9375,48.6875,21.53368,-3.25,0.003082902
60342.8994,12.0625,48.5625,22.57586,-3.375,0.003092246
60342.9019,12.0625,48.5,23.13286,-3.4375,0.003065771
60342.9044,12.0625,48.25,22.87686,-3.125,0.003045527
60342.9069,12.25,47.9375,21.84601,-3.0,0.003065771
60342.9094,12.25,47.6875,20.41862,-3.625,0.003084459
60342.9119,12.1875,47.3125,19.13338,-3.5625,0.003086016
60342.9144,12.1875,47.1875,18.44354,-3.125,0.00305487
60342.9169,12.1875,46.8125,18.52118,-3.375,0.003025282
60342.9194,12.3125,46.625,19.19747,-3.4375,0.003043969
60342.9219,12.25,46.4375,20.05927,-3.4375,0.003079787
60342.9244,12.0625,46.375,20.64873,-3.125,0.003072001
60342.9269,12.125,46.3125,20.66927,-2.75,0.003073558
60342.9294,12.1875,46.125,20.105,-2.8125,0.003101589
60342.9319,12.3125,45.875,19.2059,-2.625,0.003137407
60342.9344,12.375,45.625,18.35482,-2.1875,0.003140522
60342.9369,12.25,45.375,17.88429,-2.75,0.003157652
60342.9394,12.3125,45.25,17.92882,-2.9375,0.003156095
60342.9419,12.1875,44.9375,18.37736,-3.1875,0.003156095
60342.9444,12.3125,44.875,18.94266,-2.875,0.003209043
60342.9469,12.3125,44.6875,19.31076,-2.375,0.003209043
60342.9494,12.1875,44.5625,19.29832,-2.75,0.003185684
60342.9519,12.125,44.25,18.94362,-2.75,0.003187241
60342.9544,12.125,44.125,18.48805,-2.9375,0.003181012
60342.9569,12.0625,44.25,18.25567,-2.8125,0.003177897
60342.9594,12.125,43.9375,18.48545,-3.1875,0.003143636
60342.9619,12.25,43.6875,19.19837,-2.6875,0.003092246
60342.9644,12.3125,43.5625,20.16827,-2.6875,0.003068886
60342.9669,12.375,43.5625,21.01795,-2.5625,0.003075115
60342.9694,12.125,43.3125,21.40232,-2.75,0.003064214
60342.9719,12.0625,43.375,21.19173,-2.625,0.00302061
60342.9744,12.125,42.875,20.56105,-3.0,0.003003479
60342.9769,12.0625,42.75,19.92829,-2.9375,0.003015938
60342.9794,12.125,42.8125,19.75927,-3.0,0.00302061
60342.9819,12.125,42.5625,20.32718,-2.75,0.003050198
60342.9844,12.0,42.4375,21.54904,-2.6875,0.003029954
60342.9869,11.9375,42.5,22.99367,-2.6875,0.003000365
60342.9894,11.9375,42.5625,24.07355,-2.3125,0.003014381
60342.9919,12.125,42.375,24.33673,-1.8125,0.003025282
60342.9944,11.9375,41.9375,23.71305,-2.1875,0.003031511
60342.9969,12.0,41.8125,22.5803,-2.3125,0.003026839
60342.9994,11.8125,41.5,21.59893,-2.5,0.003019052
60343.0019,11.8125,41.5,21.3836,-2.75,0.003023724
60343.0044,12.0,41.25,22.17361,-1.9375,0.003047084
60343.0069,11.8125,41.125,23.67686,-2.3125,0.003036183
60343.0094,11.75,41.3125,25.18241,-2.6875,0.003022167
60343.0119,11.9375,41.1875,25.90111,-3.0,0.003023724
60343.0144,11.75,41.3125,25.36681,-3.25,0.003026839
60343.0169,11.875,41.125,23.69353,-3.1875,0.003026839
60343.0194,11.75,41.0625,21.54367,-2.75,0.002977005
60343.0219,11.6875,40.9375,19.8124,-2.8125,0.002903812
60343.0244,11.8125,40.875,19.18153,-3.0625,0.002885125
60343.0269,11.75,40.8125,19.77156,-3.0,0.002878895
60343.0294,11.6875,40.8125,21.0775,-2.9375,0.002855536
60343.0319,11.8125,40.8125,22.22404,-3.0,0.002872666
60343.0344,11.875,40.875,22.41228,-2.6875,0.002933401
60343.0369,11.75,40.875,21.32538,-2.4375,0.002914713
60343.0394,11.875,40.75,19.28271,-2.875,0.002889796
60343.0419,12.0,40.375,17.05843,-2.9375,0.00288201
60343.0444,11.9375,40.5,15.46649,-2.8125,0.002811931
60343.0469,12.0,40.25,14.93677,-2.8125,0.002785457
60343.0494,11.9375,40.0625,15.30709,-3.125,0.002839963
60343.0519,11.8125,39.875,15.9406,-2.6875,0.002927172
60343.0544,11.8125,39.75,16.09997,-2.75,0.002966104
60343.0569,11.8125,39.8125,15.3694,-2.8125,0.002947417
60343.0594,11.75,39.625,13.89059,-2.8125,0.002955203
60343.0619,11.8125,39.8125,12.28112,-2.9375,0.002983235
60343.0644,11.8125,40.0,11.28421,-3.3125,0.003000365
60343.0669,11.8125,40.0,11.34265,-3.1875,0.002994136
60343.0694,11.8125,39.9375,12.33624,-3.125,0.002958318
60343.0719,11.8125,39.875,13.63363,-3.1875,0.002958318
60343.0744,11.9375,39.875,14.43187,-3.1875,0.002977005
60343.0769,11.8125,39.75,14.20364,-3.1875,0.003000365
60343.0794,11.875,39.75,13.00748,-2.875,0.003000365
60343.0819,12.125,39.4375,11.49132,-2.8125,0.002977005
60343.0844,12.0625,39.3125,10.5809,-2.6875,0.002973891
60343.0869,11.8125,39.25,11.01514,-2.875,0.002983235
60343.0894,11.9375,39.4375,12.97205,-3.25,0.002989464
60343.0919,11.875,39.375,15.97907,-3.0625,0.002978563
60343.0944,12.0,39.0625,19.15119,-3.1875,0.002970776
60343.0969,12.0,39.0,21.6295,-2.9375,0.002986349
60343.0994,12.0,39.0625,22.99264,-2.8125,0.002995693
60343.1019,11.875,39.0,23.43379,-2.6875,0.002977005
60343.1044,11.75,38.9375,23.6256,-2.625,0.002958318
60343.1069,11.875,38.875,24.3557,-2.25,0.002967662
60343.1094,11.9375,38.625,26.1279,-2.9375,0.002987906
60343.1119,11.9375,38.6875,28.93131,-3.1875,0.002992578
60343.1144,12.0,38.625,32.28173,-2.6875,0.002992578
60343.1169,11.8125,38.5,35.49386,-2.375,0.002983235
60343.1194,11.8125,38.5,38.02903,-2.75,0.002972333
60343.1219,11.6875,38.25,39.73719,-2.5,0.002991021
60343.1244,11.75,38.25,40.88095,-2.0625,0.002998808
60343.1269,11.75,38.375,41.95042,-2.1875,0.002998808
60343.1294,11.875,38.5,43.3837,-2.3125,0.002967662
60343.1319,11.9375,38.25,45.34552,-2.5,0.002967662
60343.1344,11.8125,38.3125,47.67132,-2.5,0.002994136
60343.1369,11.9375,38.375,49.98702,-2.375,0.002981677
60343.1394,11.9375,38.3125,51.9235,-2.3125,0.002981677
60343.1419,11.8125,38.1875,53.30379,-2.5,0.002958318
60343.1444,11.625,37.9375,54.21016,-2.5,0.002955203
60343.1469,11.5625,38.0625,54.90948,-2.625,0.002978563
60343.1494,11.625,38.0625,55.69332,-2.25,0.002978563
60343.1519,11.875,38.0625,56.72675,-2.3125,0.002972333
60343.1544,11.6875,37.875,57.98377,-2.25,0.002938073
60343.1569,11.5625,37.6875,59.29214,-2.1875,0.00293963
60343.1594,11.625,37.75,60.44884,-2.0,0.002953646
60343.1619,11.5625,37.6875,61.33487,-2.4375,0.002966104
60343.1644,11.5625,37.6875,61.96809,-2.125,0.002953646
60343.1669,11.4375,37.5625,62.47411,-1.875,0.002947417
60343.1694,11.5,37.5625,63.00202,-2.0,0.00293963
60343.1719,11.5,37.625,63.63881,-2.125,0.002950531
60343.1744,11.5,37.75,64.36948,-2.0625,0.002944302
60343.1769,11.4375,37.6875,65.09854,-2.375,0.002933401
60343.1794,11.5,37.75,65.7126,-2.1875,0.002931844
60343.1819,11.5625,37.8125,66.14445,-2.3125,0.002961432
60343.1844,11.6875,37.875,66.40257,-2.5,0.002961432
60343.1869,11.5,37.875,66.55492,-2.1875,0.002911599
60343.1894,11.5625,38.0,66.6817,-2.3125,0.00289914
60343.1919,11.375,38.3125,66.82836,-2.6875,0.002930286
60343.1944,11.4375,38.75,66.9851,-2.8125,0.002950531
60343.1969,11.5,39.1875,67.10031,-2.625,0.002941187
60343.1994,11.5,39.875,67.11604,-2.375,0.002916271
60343.2019,11.6875,40.625,67.00239,-2.5625,0.002896026
60343.2044,11.6875,41.5,66.77208,-2.625,0.002913156
60343.2069,11.75,42.5,66.4697,-3.0625,0.002948974
60343.2094,11.6875,43.375,66.14539,-3.25,0.002947417
60343.2119,11.6875,44.25,65.82993,-2.5625,0.002919385
60343.2144,11.75,45.125,65.52557,-2.5625,0.002914713
60343.2169,11.75,46.125,65.21538,-2.375,0.002941187
60343.2194,11.6875,46.8125,64.88219,-2.5,0.002978563
60343.2219,11.9375,47.625,64.52492,-2.4375,0.002970776
60343.2244,11.8125,48.25,64.16241,-2.375,0.002984792
60343.2269,11.75,48.875,63.82398,-2.625,0.003001922
60343.2294,11.5625,49.5625,63.53305,-2.9375,0.003043969
60343.2319,11.75,50.375,63.2929,-2.9375,0.003081344
60343.2344,11.875,51.0,63.08144,-3.0625,0.003090688
60343.2369,11.8125,51.6875,62.8573,-2.5625,0.003096917
60343.2394,11.75,52.625,62.57221,-3.0,0.003120277
60343.2419,11.875,53.125,62.18393,-2.875,0.003162324
60343.2444,11.875,54.0,61.66534,-3.0625,0.003170111
60343.2469,11.75,54.8125,61.00986,-3.125,0.003174782
60343.2494,11.75,55.6875,60.23461,-2.6875,0.003188798
60343.2519,11.6875,56.6875,59.38109,-2.6875,0.003195027
60343.2544,11.8125,57.25,58.51314,-3.125,0.003209043
60343.2569,11.875,58.25,57.7099,-3.3125,0.003207486
60343.2594,11.875,59.0625,57.05029,-3.125,0.003184126
60343.2619,12.0625,59.9375,56.59383,-2.8125,0.003170111
60343.2644,12.0,60.625,56.36293,-2.6875,0.003163881
60343.2669,11.9375,61.25,56.33341,-2.875,0.003163881
60343.2694,12.0,62.125,56.43823,-3.125,0.003159209
60343.2719,11.9375,62.625,56.58481,-3.25,0.003132735
60343.2744,11.875,63.1875,56.67999,-3.1875,0.003132735
60343.2769,11.75,63.875,56.65448,-3.1875,0.003140522
60343.2794,11.9375,64.4375,56.47762,-3.1875,0.003143636
60343.2819,11.875,65.0,56.15768,-3.5,0.003131178
60343.2844,11.9375,65.5,55.72844,-3.9375,0.003096917
60343.2869,11.8125,66.0625,55.22824,-3.5625,0.003092246
60343.2894,11.875,66.3125,54.68088,-3.3125,0.00311249
60343.2919,11.9375,66.875,54.0857,-3.375,0.003137407
60343.2944,12.0,67.3125,53.41875,-3.25,0.003114048
60343.2969,12.0,67.5625,52.64198,-3.0,0.003079787
60343.2994,12.0,68.0,51.71384,-2.5,0.003101589
60343.3019,12.125,68.25,50.5952,-2.5625,0.003107819
60343.3044,12.0,68.5625,49.24798,-2.75,0.003106261
60343.3069,12.125,68.75,47.63023,-2.9375,0.003103147
60343.3094,12.0,69.0625,45.6947,-3.0625,0.003081344
60343.3119,12.25,69.125,43.39801,-2.6875,0.003082902
60343.3144,12.125,69.1875,40.72567,-2.8125,0.003109376
60343.3169,12.1875,69.3125,37.72865,-2.5625,0.00311249
60343.3194,12.0,69.375,34.55604,-2.375,0.003082902
60343.3219,12.125,69.625,31.46637,-2.4375,0.003089131
60343.3244,12.0625,69.5,28.80125,-2.5,0.003093803
60343.3269,11.9375,69.5625,26.9184,-2.4375,0.003101589
60343.3294,12.125,69.5625,26.098,-2.5625,0.003106261
60343.3319,12.0625,69.625,26.45167,-2.8125,0.003076673
60343.3344,11.9375,69.6875,27.86878,-2.8125,0.00307823
60343.3369,12.0,69.625,30.02627,-2.4375,0.003084459
60343.3394,12.0625,69.4375,32.46593,-2.625,0.003101589
60343.3419,12.0,69.5,34.71671,-2.8125,0.003092246
60343.3444,12.0625,69.1875,36.41997,-2.5,0.003079787
60343.3469,12.0,68.875,37.41227,-2.4375,0.003079787
60343.3494,11.8125,68.875,37.73656,-2.5625,0.003082902
60343.3519,12.0625,68.5625,37.58157,-2.375,0.003092246
60343.3544,11.875,68.1875,37.17939,-2.25,0.003064214
60343.3569,12.0,68.125,36.70754,-2.625,0.003062657
60343.3594,11.9375,67.6875,36.23576,-2.375,0.003075115
60343.3619,12.0625,67.4375,35.73484,-2.5625,0.003082902
60343.3644,11.9375,67.0625,35.13401,-2.625,0.00309536
60343.3669,12.0625,66.625,34.39119,-2.75,0.003081344
60343.3694,12.125,66.25,33.53645,-2.3125,0.003068886
60343.3719,12.125,65.75,32.66649,-2.625,0.003081344
60343.3744,12.0625,65.1875,31.8958,-2.9375,0.003093803
60343.3769,11.9375,64.6875,31.2948,-2.875,0.003087574
60343.3794,12.1875,64.375,30.85112,-2.8125,0.003051756
60343.3819,12.0625,63.75,30.4775,-2.875,0.003057985
60343.3844,12.0,63.3125,30.06173,-2.75,0.003082902
60343.3869,11.875,62.625,29.53126,-3.3125,0.00309536
60343.3894,11.9375,62.25,28.89517,-2.3125,0.003090688
60343.3919,11.875,61.5625,28.2388,-2.625,0.003072001
60343.3944,12.0,60.9375,27.67398,-2.1875,0.003092246
60343.3969,11.8125,60.125,27.27418,-2.5,0.003104704
60343.3994,12.0625,59.5625,27.03183,-2.4375,0.00311249
60343.4019,11.9375,58.8125,26.86451,-2.3125,0.003103147
60343.4044,11.875,58.375,26.66583,-3.0,0.003084459
60343.4069,11.8125,57.5625,26.37356,-2.9375,0.003086016
60343.4094,11.875,57.0625,26.01184,-2.75,0.003101589
60343.4119,11.875,56.5625,25.68045,-3.0,0.003104704
60343.4144,11.9375,56.125,25.49259,-2.75,0.003100032
60343.4169,12.0625,55.875,25.49507,-2.9375,0.003092246
60343.4194,11.9375,55.4375,25.62196,-2.9375,0.003098475
60343.4219,12.0625,55.0,25.71404,-3.25,0.00311249
60343.4244,11.9375,54.625,25.60111,-2.9375,0.003103147
60343.4269,12.0,54.3125,25.20367,-2.4375,0.00309536
60343.4294,11.875,53.875,24.60024,-2.75,0.003103147
60343.4319,11.9375,53.5625,24.01168,-2.5625,0.003123392
60343.4344,11.9375,53.0625,23.69825,-2.8125,0.003117162
60343.4369,12.125,52.625,23.81797,-2.875,0.003103147
60343.4394,11.9375,52.4375,24.31981,-2.75,0.003086016
60343.4419,12.1875,52.0625,24.93414,-2.375,0.003087574
60343.4444,12.0625,51.6875,25.27889,-2.5625,0.003124949
60343.4469,12.1875,51.3125,25.03802,-2.875,0.003128063
60343.4494,12.125,50.9375,24.1282,-3.0625,0.003107819
60343.4519,12.0625,50.625,22.7641,-3.0625,0.003092246
60343.4544,11.9375,50.25,21.38284,-3.1875,0.003100032
60343.4569,11.9375,50.125,20.45521,-2.9375,0.003131178
60343.4594,12.125,49.6875,20.26859,-3.125,0.00311249
60343.4619,12.1875,49.4375,20.79005,-2.75,0.003096917
60343.4644,12.0625,49.0625,21.676,-2.75,0.003093803
60343.4669,12.0625,48.875,22.4279,-2.9375,0.00311249
60343.4694,12.25,48.75,22.62071,-2.8125,0.003134293
60343.4719,12.0,48.3125,22.09455,-3.0625,0.003123392
60343.4744,12.1875,48.3125,21.01981,-2.75,0.003117162
60343.4769,12.125,47.875,19.80748,-2.4375,0.003106261
60343.4794,12.0625,47.75,18.91252,-2.8125,0.003110933
60343.4819,12.0625,47.375,18.62784,-3.1875,0.003131178
60343.4844,12.0,47.1875,18.96602,-3.0625,0.003121834
60343.4869,12.125,46.8125,19.67797,-3.0,0.003084459
60343.4894,12.0625,46.6875,20.3883,-3.25,0.003056428
60343.4919,12.1875,46.5625,20.77243,-3.1875,0.003087574
60343.4944,12.0625,46.3125,20.68872,-3.0625,0.003115605
60343.4969,12.1875,46.1875,20.20984,-2.9375,0.003120277
60343.4994,12.125,46.125,19.55411,-3.4375,0.003114048
60343.5019,12.25,45.8125,18.96566,-3.375,0.003124949
60343.5044,12.0625,45.625,18.60952,-3.3125,0.003163881
60343.5069,12.1875,45.375,18.52756,-3.3125,0.003165439
60343.5094,12.125,45.25,18.66076,-3.0,0.003191913
60343.5119,11.875,45.0625,18.90741,-3.1875,0.003201257
60343.5144,12.0625,44.875,19.17595,-2.875,0.003182569
60343.5169,12.0625,44.6875,19.40685,-2.9375,0.00321683
60343.5194,12.125,44.625,19.56628,-2.8125,0.003235517
60343.5219,12.1875,44.375,19.63356,-2.8125,0.003232403
60343.5244,12.1875,44.125,19.60362,-2.6875,0.003227731
60343.5269,11.875,44.125,19.50513,-3.0625,0.003218387
60343.5294,12.0,43.9375,19.41489,-2.875,0.003209043
60343.5319,11.875,43.875,19.44171,-3.25,0.003174782
60343.5344,12.125,43.75,19.6746,-2.6875,0.003129621
60343.5369,11.9375,43.4375,20.11799,-2.6875,0.003089131
60343.5394,12.0,43.375,20.65763,-2.875,0.003070443
60343.5419,12.0625,43.0625,21.09381,-3.6875,0.003073558
60343.5444,12.0625,43.0,21.23969,-3.5,0.003051756
60343.5469,12.125,42.9375,21.03987,-3.1875,0.003022167
60343.5494,11.9375,42.75,20.63719,-3.1875,0.003017495
60343.5519,11.875,42.75,20.33294,-2.8125,0.003042412
60343.5544,12.0,42.5,20.44171,-2.625,0.003057985
60343.5569,11.875,42.5,21.10741,-2.8125,0.003042412
60343.5594,11.9375,42.3125,22.18415,-3.1875,0.003014381
60343.5619,11.875,42.25,23.26406,-3.125,0.003031511
60343.5644,12.0625,42.25,23.86037,-3.0625,0.003056428
60343.5669,11.9375,41.9375,23.66411,-2.6875,0.003065771
60343.5694,12.0,41.875,22.7387,-2.3125,0.003043969
60343.5719,12.0625,41.5625,21.53409,-2.3125,0.003039297
60343.5744,11.9375,41.5625,20.68919,-2.75,0.003028396
60343.5769,11.8125,41.5,20.70786,-2.375,0.003043969
60343.5794,12.0625,41.3125,21.6729,-2.6875,0.003059542
60343.5819,11.9375,41.1875,23.15684,-2.5625,0.003043969
60343.5844,12.0,41.25,24.396,-2.6875,0.003045527
60343.5869,11.875,41.0625,24.65486,-2.375,0.003033068
60343.5894,11.75,41.125,23.60236,-1.875,0.003029954
60343.5919,11.9375,40.9375,21.50242,-2.4375,0.003000365
60343.5944,11.9375,40.75,19.11025,-2.4375,0.002928729
60343.5969,11.875,40.9375,17.31717,-2.75,0.002903812
60343.5994,11.8125,40.8125,16.71902,-2.625,0.002874223
60343.6019,11.9375,40.625,17.3288,-2.5625,0.002833734
60343.6044,11.9375,40.75,18.58062,-2.5,0.002877338
60343.6069,11.9375,40.6875,19.62153,-2.5,0.002970776
60343.6094,12.0,40.625,19.73834,-2.3125,0.002944302
60343.6119,12.0625,40.625,18.69701,-2.3125,0.002903812
60343.6144,12.125,40.625,16.82385,-2.375,0.002874223
60343.6169,12.0625,40.625,14.79807,-2.875,0.002819718
60343.6194,11.875,40.375,13.27989,-2.875,0.002811931
60343.6219,11.9375,40.4375,12.58007,-2.75,0.002853979
60343.6244,11.9375,40.125,12.54477,-2.6875,0.002928729
60343.6269,12.0,40.1875,12.70401,-2.625,0.002967662
60343.6294,12.0,40.125,12.58507,-3.125,0.00295676
60343.6319,11.9375,40.0,11.99941,-2.8125,0.00296299
60343.6344,12.0625,40.0625,11.13863,-3.1875,0.002995693
60343.6369,12.0,39.9375,10.43066,-2.875,0.003014381
60343.6394,12.0,39.9375,10.24926,-3.125,0.003012823
60343.6419,12.0625,39.6875,10.65622,-3.5625,0.002995693
60343.6444,12.125,39.8125,11.33598,-3.375,0.002986349
60343.6469,12.25,39.625,11.77086,-3.125,0.002998808
60343.6494,12.0625,39.5625,11.5562,-3.0,0.003014381
60343.6519,12.125,39.5,10.67496,-3.125,0.00299725
60343.6544,12.0625,39.5,9.565175,-3.0,0.002959875
60343.6569,12.125,39.4375,8.929094,-3.125,0.002970776
60343.6594,12.0625,39.3125,9.377987,-3.0625,0.002984792
60343.6619,12.125,39.375,11.10335,-3.25,0.002998808
60343.6644,12.0625,39.0625,13.75573,-3.375,0.002998808
60343.6669,12.1875,39.1875,16.60297,-3.1875,0.002977005
60343.6694,12.25,39.0,18.88884,-3.3125,0.002984792
60343.6719,12.1875,39.125,20.20579,-2.875,0.002984792
60343.6744,12.25,39.0,20.68735,-2.5625,0.002991021
60343.6769,12.3125,38.875,20.92184,-2.3125,0.002986349
60343.6794,12.3125,38.875,21.6384,-2.4375,0.002972333
60343.6819,12.3125,38.9375,23.3335,-2.5,0.002986349
60343.6844,12.125,38.875,26.03139,-2.6875,0.002984792
60343.6869,12.25,38.9375,29.29471,-2.6875,0.002981677
60343.6894,12.1875,38.9375,32.46608,-3.1875,0.002967662
60343.6919,12.25,38.625,35.00305,-3.125,0.002961432
60343.6944,12.3125,38.75,36.72864,-2.875,0.002998808
60343.6969,12.125,38.75,37.8752,-3.1875,0.003001922
60343.6994,12.1875,38.625,38.91642,-3.0625,0.002977005
60343.7019,12.3125,38.5,40.29148,-3.125,0.002947417
60343.7044,12.375,38.5,42.17427,-3.3125,0.00296299
60343.7069,12.125,38.625,44.40564,-3.4375,0.002992578
60343.7094,12.0625,38.5,46.60887,-3.4375,0.002983235
60343.7119,12.25,38.3125,48.41031,-3.5,0.002964547
60343.7144,12.1875,38.4375,49.638,-3.125,0.002952089
60343.7169,11.9375,38.4375,50.39488,-3.3125,0.002959875
60343.7194,12.0,38.375,50.97908,-3.1875,0.002969219
60343.7219,11.9375,38.1875,51.70856,-3.0,0.00296299
60343.7244,11.875,38.125,52.75332,-3.125,0.002952089
60343.7269,12.0625,38.1875,54.06419,-3.0625,0.002933401
60343.7294,11.9375,38.0,55.42669,-2.8125,0.002928729
60343.7319,12.0625,38.125,56.5973,-2.9375,0.002942745
60343.7344,12.1875,37.9375,57.4397,-3.0625,0.002947417
60343.7369,12.1875,37.875,57.98693,-3.0625,0.002933401
60343.7394,12.0625,37.9375,58.40335,-2.875,0.002906927
60343.7419,12.0625,37.9375,58.87799,-3.1875,0.002916271
60343.7444,11.9375,37.875,59.51495,-2.8125,0.00293963
60343.7469,12.0625,37.9375,60.28176,-3.3125,0.002938073
60343.7494,12.0625,37.875,61.03852,-2.875,0.002908484
60343.7519,12.0,37.9375,61.62355,-3.6875,0.002903812
60343.7544,12.0625,37.9375,61.94328,-3.875,0.002920942
60343.7569,11.9375,38.125,62.01654,-3.3125,0.002924057
60343.7594,12.1875,38.3125,61.95396,-2.6875,0.002903812
60343.7619,12.0625,38.3125,61.89024,-3.0625,0.002886682
60343.7644,12.125,38.625,61.91103,-3.3125,0.002889796
60343.7669,12.0625,39.125,62.01511,-2.9375,0.002916271
60343.7694,12.1875,39.5625,62.1283,-3.75,0.002905369
60343.7719,12.1875,40.4375,62.1558,-4.0,0.002896026
60343.7744,12.1875,41.125,62.04025,-3.625,0.002885125
60343.7769,12.25,42.125,61.79301,-2.875,0.002889796
60343.7794,12.25,42.9375,61.4839,-2.875,0.002913156
60343.7819,12.25,44.0625,61.19826,-3.0625,0.002900698
60343.7844,12.1875,45.0,60.98703,-3.25,0.002888239
60343.7869,12.4375,45.875,60.83699,-3.25,0.002889796
60343.7894,12.4375,46.6875,60.67723,-3.1875,0.002913156
60343.7919,12.5,47.625,60.41504,-3.0,0.002945859
60343.7944,12.4375,48.375,59.98242,-2.6875,0.002945859
60343.7969,12.4375,49.125,59.3705,-2.5,0.00293963
60343.7994,12.4375,49.75,58.63588,-3.125,0.002952089
60343.8019,12.4375,50.3125,57.87862,-2.8125,0.002991021
60343.8044,12.375,50.9375,57.20233,-2.6875,0.003034625
60343.8069,12.4375,51.6875,56.674,-2.6875,0.003043969
60343.8094,12.4375,52.5,56.30007,-2.9375,0.003051756
60343.8119,12.375,53.125,56.02653,-2.9375,0.003079787
60343.8144,12.4375,53.9375,55.76157,-2.75,0.003124949
60343.8169,12.5,54.75,55.41032,-2.625,0.003160767
60343.8194,12.4375,55.6875,54.90798,-2.3125,0.003157652
60343.8219,12.5625,56.5625,54.24032,-2.625,0.003160767
60343.8244,12.5,57.625,53.44623,-2.8125,0.003165439
60343.8269,12.4375,58.25,52.60217,-3.1875,0.003184126
60343.8294,12.5625,59.1875,51.79543,-2.9375,0.003185684
60343.8319,12.4375,60.0,51.09599,-3.125,0.003170111
