Time (s),Venous (mmHg),FAP (mmHg),Arterial - Pigtail (mmHg),Swan (mmHg),EKG (mV)
60572.7144,12.4375,55.3125,-11.01076,-1.9375,0.003339856
60572.7169,12.25,55.0625,-9.756517,-1.75,0.003369445
60572.7194,12.1875,54.625,-8.520666,-1.9375,0.00311249
60572.7219,12.3125,54.4375,-7.465739,-1.8125,0.003789916
60572.7244,12.3125,54.125,-6.648667,-1.8125,0.00243195
60572.7269,12.3125,54.0,-6.018807,-1.4375,-0.003297358
60572.7294,12.125,53.5625,-5.4592,-1.375,-0.003639964
60572.7319,12.4375,53.375,-4.849935,-1.25,-0.003633735
60572.7344,12.25,53.25,-4.126964,-1.0625,-0.002716485
60572.7369,12.1875,52.875,-3.31229,-0.9375,0.001869765
60572.7394,12.25,53.0625,-2.504434,-1.125,0.002632842
60572.7419,12.3125,52.875,-1.834598,-1.0,0.002491128
60572.7444,12.3125,52.875,-1.406137,-1.3125,0.00276677
60572.7469,12.4375,52.875,-1.245255,-1.4375,0.002855536
60572.7494,12.4375,52.5,-1.282547,-1.3125,0.002927172
60572.7519,12.25,52.3125,-1.374297,-1.3125,0.002945859
60572.7544,12.4375,52.375,-1.356645,-1.4375,0.002981677
60572.7569,12.375,52.125,-1.107681,-1.25,0.003015938
60572.7594,12.1875,51.75,-0.5929729,-1.5625,0.003057985
60572.7619,12.375,51.5625,0.1235439,-1.75,0.003081344
60572.7644,12.4375,51.375,0.9098721,-1.4375,0.003081344
60572.7669,12.375,51.25,1.620435,-1.375,0.003093803
60572.7694,12.3125,50.875,2.151123,-1.375,0.003109376
60572.7719,12.375,50.75,2.472503,-1.5,0.003134293
60572.7744,12.4375,50.5625,2.627637,-1.375,0.003140522
60572.7769,12.375,50.4375,2.698041,-1.25,0.003131178
60572.7794,12.125,50.125,2.757227,-1.0625,0.003134293
60572.7819,12.4375,49.875,2.831221,-1.0,0.00315298
60572.7844,12.4375,49.75,2.888166,-1.4375,0.003163881
60572.7869,12.5,49.5625,2.857223,-1.125,0.003157652
60572.7894,12.3125,49.25,2.66536,-1.4375,0.003142079
60572.7919,12.3125,49.0,2.27477,-1.375,0.003159209
60572.7944,12.4375,48.8125,1.701957,-0.6875,0.00317634
60572.7969,12.4375,48.625,1.010242,-1.1875,0.003170111
60572.7994,12.4375,48.25,0.2806015,-1.5,0.003170111
60572.8019,12.375,47.875,-0.4257825,-1.875,0.003148308
60572.8044,12.5,47.75,-1.096174,-1.75,0.003151423
60572.8069,12.4375,47.625,-1.773861,-1.25,0.003173225
60572.8094,12.375,47.375,-2.540944,-0.875,0.003191913
60572.8119,12.5625,47.125,-3.484313,-1.125,0.003191913
60572.8144,12.4375,47.0,-4.659228,-1.125,0.003215272
60572.8169,12.4375,46.75,-6.066405,-1.0625,0.00329158
60572.8194,12.5625,46.5,-7.651809,-1.5625,0.003378789
60572.8219,12.4375,46.4375,-9.32912,-2.0,0.003437966
60572.8244,12.3125,46.125,-11.01462,-1.6875,0.003453539
60572.8269,12.4375,46.125,-12.65914,-1.1875,0.0034878
60572.8294,12.5625,45.875,-14.26269,-1.0625,0.003540748
60572.8319,12.5625,45.8125,-15.86545,-1.0625,0.003652874
60572.8344,12.4375,45.75,-17.51898,-1.25,0.003307153
60572.8369,12.625,45.5,-19.25009,-1.5,0.004229075
60572.8394,12.4375,45.375,-21.03298,-1.3125,0.002280892
60572.8419,12.375,45.1875,-22.78008,-1.4375,-0.005335865
60572.8444,12.625,45.25,-24.35368,-1.75,-0.005057108
60572.8469,12.625,45.1875,-25.59279,-1.625,-0.004806382
60572.8494,12.5,45.0,-26.34546,-1.3125,-0.003478005
60572.8519,12.4375,44.9375,-26.49949,-1.0,0.002673332
60572.8544,12.75,44.875,-26.00806,-1.5625,0.003229288
60572.8569,12.4375,44.875,-24.91122,-1.6875,0.002878895
60572.8594,12.5625,44.6875,-23.3485,-1.1875,0.003218387
60572.8619,12.4375,44.6875,-21.55656,-1.5625,0.003218387
60572.8644,12.6875,44.875,-19.84044,-1.25,0.003276007
60572.8669,12.5625,44.75,-18.51139,-1.6875,0.0033492
60572.8694,12.5,44.625,-17.80116,-1.125,0.003467555
60572.8719,12.8125,44.9375,-17.77709,-1.625,0.003514274
60572.8744,12.5,44.875,-18.29675,-1.4375,0.003489357
60572.8769,12.5625,44.6875,-19.03469,-0.875,0.00356255
60572.8794,12.375,44.875,-19.58727,-1.3125,0.003755656
60572.8819,12.625,44.8125,-19.62622,-1.375,0.004074902
60572.8844,12.625,44.75,-19.03911,-1.375,0.004210387
60572.8869,12.6875,44.8125,-17.98951,-1.125,0.004311612
60572.8894,12.625,44.875,-16.85758,-1.5,0.004397263
60572.8919,12.6875,44.875,-16.07472,-1.8125,0.004336529
60572.8944,12.75,44.8125,-15.92055,-1.9375,0.004160554
60572.8969,12.5625,44.625,-16.37745,-1.75,0.003895813
60572.8994,12.6875,44.625,-17.11958,-2.0,0.003638858
60572.9019,12.6875,44.6875,-17.65314,-1.9375,0.003498701
60572.9044,12.6875,44.625,-17.5506,-2.1875,0.003378789
60572.9069,12.625,44.5,-16.66937,-2.0625,0.003381903
60572.9094,12.6875,44.4375,-15.24557,-2.0625,0.003428622
60572.9119,12.5625,44.25,-13.808,-1.6875,0.003467555
60572.9144,12.875,44.1875,-12.94531,-1.4375,0.003517389
60572.9169,12.75,44.0625,-13.0328,-1.1875,0.003537633
60572.9194,12.875,44.0625,-14.04995,-1.375,0.003565665
60572.9219,12.75,44.0,-15.58032,-1.6875,0.003550092
60572.9244,12.8125,43.75,-16.99859,-2.0,0.003534519
60572.9269,12.75,43.75,-17.75775,-1.8125,0.003571894
60572.9294,12.9375,43.4375,-17.64047,-1.6875,0.003590582
60572.9319,12.8125,43.5625,-16.85555,-1.6875,0.003590582
60572.9344,12.9375,43.25,-15.93541,-1.5,0.003599925
60572.9369,12.625,42.9375,-15.48633,-1.125,0.003596811
60572.9394,12.5625,42.9375,-15.91149,-1.125,0.003589024
60572.9419,12.8125,42.6875,-17.23483,-1.0625,0.003610827
60572.9444,12.8125,42.625,-19.10057,-1.5,0.003595254
60572.9469,12.75,42.4375,-20.9364,-1.75,0.003564108
60572.9494,13.0,42.375,-22.19345,-1.0625,0.003565665
60572.9519,12.9375,42.25,-22.54799,-1.75,0.003556321
60572.9544,12.8125,42.125,-21.97923,-1.0,0.003559436
60572.9569,12.9375,42.125,-20.70727,-0.875,0.003548535
60572.9594,13.0,42.0625,-19.04072,-1.1875,0.003525175
60572.9619,12.9375,42.125,-17.22143,-1.5625,0.003543863
60572.9644,13.1875,42.0,-15.34049,-1.6875,0.003515831
60572.9669,13.125,42.25,-13.35226,-1.5,0.003490914
60572.9694,13.25,42.1875,-11.15929,-1.25,0.003494029
60572.9719,13.1875,42.0,-8.707838,-1.125,0.003476899
60572.9744,13.3125,41.875,-6.039061,-1.4375,0.003492472
60572.9769,13.1875,41.9375,-3.273993,-1.375,0.003467555
60572.9794,13.25,41.9375,-0.5517609,-1.375,0.003425508
60572.9819,13.3125,42.0625,2.034849,-1.4375,0.003419279
60572.9844,13.5,42.0,4.466782,-1.3125,0.003411492
60572.9869,13.375,42.0,6.775253,-1.125,0.003448867
60572.9894,13.4375,41.9375,8.986848,-1.125,0.003409935
60572.9919,13.4375,41.8125,11.07419,-1.0625,0.003367888
60572.9944,13.4375,41.8125,12.94484,-1.125,0.003369445
60572.9969,13.3125,41.75,14.47645,-1.3125,0.003380346
60572.9994,13.5,41.6875,15.57867,-0.9375,0.003386575
60573.0019,13.4375,41.625,16.24684,-0.5625,0.003360101
60573.0044,13.3125,41.6875,16.57652,-1.0,0.003336742
60573.0069,13.25,41.625,16.73038,-0.625,0.00333207
60573.0094,13.25,41.5,16.8737,-1.125,0.003374117
60573.0119,13.4375,41.75,17.11016,-1.125,0.003380346
60573.0144,13.4375,41.6875,17.44855,-0.9375,0.003342971
60573.0169,13.1875,41.375,17.81322,-1.0625,0.003344528
60573.0194,13.4375,41.5625,18.08937,-1.25,0.003328955
60573.0219,13.375,41.3125,18.17837,-1.1875,0.003319611
60573.0244,13.25,41.3125,18.03748,-1.1875,0.003325841
60573.0269,13.1875,41.1875,17.68821,-1.1875,0.003346086
60573.0294,13.3125,41.0,17.19523,-1.375,0.003355429
60573.0319,13.375,41.3125,16.6298,-1.5625,0.003367888
60573.0344,13.25,40.9375,16.03621,-1.1875,0.003417721
60573.0369,13.5,40.875,15.41574,-1.0,0.003431737
60573.0394,13.3125,40.875,14.73194,-1.125,0.003451982
60573.0419,13.5625,40.75,13.93112,-1.375,0.00350493
60573.0444,13.3125,40.75,12.96803,-1.1875,0.003539191
60573.0469,13.3125,40.8125,11.825,-1.0625,0.003601483
60573.0494,13.4375,40.875,10.51816,-1.125,0.003627957
60573.0519,13.5625,40.8125,9.089082,-1.25,0.003613941
60573.0544,13.5625,41.25,7.586338,-1.4375,0.003641973
60573.0569,13.5,41.6875,6.043403,-1.6875,0.003646645
60573.0594,13.5,42.3125,4.461385,-1.4375,0.003694921
60573.0619,13.6875,42.9375,2.803108,-1.125,0.003676233
60573.0644,13.625,43.75,1.001698,-1.3125,0.003635743
60573.0669,13.625,44.625,-1.017695,-1.375,0.003659103
60573.0694,13.9375,45.25,-3.309339,-1.625,0.003690249
60573.0719,13.875,46.0625,-5.881456,-1.5625,0.003693364
60573.0744,13.875,46.75,-8.683096,-1.8125,0.003659103
60573.0769,13.9375,47.5,-11.60851,-1.125,0.003618613
60573.0794,13.875,48.1875,-14.51784,-1.5625,0.003632629
60573.0819,14.0,48.875,-17.26597,-1.5,0.003665332
60573.0844,13.875,49.4375,-19.72969,-1.1875,0.003655988
60573.0869,14.0625,49.9375,-21.82498,-1.4375,0.003632629
60573.0894,14.0625,50.6875,-23.50952,-1.4375,0.003631072
60573.0919,14.1875,51.25,-24.77378,-1.5625,0.003615499
60573.0944,14.1875,51.75,-25.62609,-1.5625,0.003649759
60573.0969,14.1875,52.4375,-26.07915,-1.625,0.003671561
60573.0994,14.3125,52.9375,-26.14339,-1.625,0.003624842
60573.1019,14.375,53.6875,-25.82882,-1.5,0.003612384
60573.1044,14.4375,54.3125,-25.15555,-1.3125,0.003637301
60573.1069,14.3125,54.9375,-24.16936,-1.5,0.003677791
60573.1094,14.4375,55.625,-22.95805,-0.75,0.003665332
60573.1119,14.3125,56.125,-21.65995,-0.75,0.003629514
60573.1144,14.625,56.875,-20.45626,-0.875,0.003634186
60573.1169,14.5625,57.375,-19.54107,-1.0,0.003638858
60573.1194,14.25,58.0625,-19.0725,-1.5625,0.003648202
60573.1219,14.5,58.6875,-19.11797,-1.5,0.003618613
60573.1244,14.3125,59.1875,-19.61515,-1.375,0.003629514
60573.1269,14.4375,59.625,-20.37063,-2.0625,0.003649759
60573.1294,14.4375,60.125,-21.10808,-1.75,0.00364353
60573.1319,14.4375,60.4375,-21.5564,-1.4375,0.003652874
60573.1344,14.625,60.6875,-21.54708,-1.5,0.003627957
60573.1369,14.4375,61.0,-21.07947,-1.5,0.003624842
60573.1394,14.5,61.1875,-20.32063,-1.625,0.00364353
60573.1419,14.5,61.4375,-19.53393,-1.8125,0.003657546
60573.1444,14.3125,61.4375,-18.96405,-1.625,0.003648202
60573.1469,14.5,61.5,-18.73079,-1.875,0.0036264
60573.1494,14.5625,61.4375,-18.78296,-2.0625,0.003634186
60573.1519,14.375,61.4375,-18.93729,-1.875,0.003648202
60573.1544,14.625,61.375,-18.98394,-1.9375,0.003659103
60573.1569,14.4375,61.25,-18.80433,-1.25,0.003657546
60573.1594,14.4375,61.125,-18.4382,-1.1875,0.003627957
60573.1619,14.5625,60.75,-18.0609,-1.6875,0.003641973
60573.1644,14.5,60.6875,-17.87984,-1.375,0.003671561
60573.1669,14.375,60.3125,-18.00516,-1.125,0.003666889
60573.1694,14.5,60.0625,-18.36699,-1.4375,0.003655988
60573.1719,14.4375,59.875,-18.73132,-1.5625,0.003632629
60573.1744,14.4375,59.3125,-18.8135,-1.4375,0.003612384
60573.1769,14.625,59.125,-18.43329,-1.125,0.003638858
60573.1794,14.375,58.625,-17.62712,-1.375,0.003649759
60573.1819,14.4375,58.25,-16.65067,-1.5,0.003654431
60573.1844,14.5,58.125,-15.86003,-1.6875,0.003610827
60573.1869,14.4375,57.8125,-15.52641,-1.875,0.003599925
60573.1894,14.5625,57.8125,-15.67923,-1.3125,0.003624842
60573.1919,14.375,57.5625,-16.06428,-1.8125,0.00364353
60573.1944,14.3125,57.5,-16.24748,-1.75,0.003638858
60573.1969,14.5,57.4375,-15.82061,-1.75,0.003607712
60573.1994,14.5625,57.125,-14.60849,-1.875,0.00362017
60573.2019,14.4375,57.25,-12.77259,-1.8125,0.003646645
60573.2044,14.5,56.9375,-10.75438,-1.6875,0.003657546
60573.2069,14.4375,56.8125,-9.083154,-1.5625,0.0036264
60573.2094,14.25,56.375,-8.140528,-1.1875,0.003624842
60573.2119,14.4375,56.0625,-7.996594,-1.875,0.003659103
60573.2144,14.4375,55.9375,-8.395997,-1.6875,0.003652874
60573.2169,14.5,55.5625,-8.89685,-1.875,0.003645087
60573.2194,14.5625,55.5,-9.089429,-1.9375,0.003623285
60573.2219,14.625,55.0625,-8.784734,-1.6875,0.003638858
60573.2244,14.5,54.9375,-8.082998,-1.9375,0.003654431
60573.2269,14.5,54.5,-7.297256,-1.625,0.003662218
60573.2294,14.625,54.375,-6.779627,-1.75,0.003652874
60573.2319,14.5,53.875,-6.744416,-1.5,0.003609269
60573.2344,14.625,53.6875,-7.175619,-1.9375,0.003631072
60573.2369,14.5625,53.375,-7.857144,-1.75,0.003662218
60573.2394,14.625,53.1875,-8.498374,-1.5,0.003637301
60573.2419,14.8125,53.0625,-8.882538,-2.0,0.003621728
60573.2444,14.625,52.875,-8.9597,-1.4375,0.003601483
60573.2469,14.5625,52.5,-8.844765,-1.25,0.0036264
60573.2494,14.75,52.3125,-8.732842,-1.4375,0.00366066
60573.2519,14.75,52.1875,-8.786875,-1.3125,0.003634186
60573.2544,14.625,51.75,-9.059615,-1.4375,0.0036264
60573.2569,14.6875,51.75,-9.485782,-1.75,0.00362017
60573.2594,14.75,51.3125,-9.937653,-1.4375,0.003634186
60573.2619,14.6875,51.25,-10.30373,-1.6875,0.003666889
60573.2644,14.9375,50.875,-10.54283,-1.3125,0.003648202
60573.2669,14.6875,50.8125,-10.68681,-1.25,0.003632629
60573.2694,14.8125,50.5625,-10.79853,-1.3125,0.003604597
60573.2719,14.875,50.1875,-10.91741,-1.3125,0.003618613
60573.2744,14.8125,50.125,-11.0293,-1.375,0.003637301
60573.2769,14.875,49.8125,-11.07785,-1.125,0.003634186
60573.2794,14.75,49.625,-11.00771,-1.6875,0.003631072
60573.2819,14.9375,49.25,-10.80953,-1.4375,0.003615499
60573.2844,14.8125,49.125,-10.53686,-1.3125,0.003612384
60573.2869,14.9375,48.9375,-10.28332,-1.6875,0.003612384
60573.2894,14.75,48.625,-10.13355,-2.1875,0.003618613
60573.2919,14.875,48.25,-10.11702,-1.625,0.003621728
60573.2944,14.875,48.1875,-10.19218,-1.4375,0.003617056
60573.2969,14.875,48.0,-10.26967,-1.0625,0.003638858
60573.2994,14.8125,47.75,-10.26139,-1.1875,0.003615499
60573.3019,15.0,47.625,-10.12607,-0.75,0.003615499
60573.3044,14.6875,47.375,-9.886896,-1.0625,0.003612384
60573.3069,14.6875,47.125,-9.612866,-1.0,0.003617056
60573.3094,14.75,47.0625,-9.376673,-0.5625,0.003649759
60573.3119,14.6875,46.6875,-9.213658,-1.5,0.003621728
60573.3144,14.8125,46.625,-9.105335,-1.125,0.003565665
60573.3169,14.875,46.3125,-8.994725,-1.1875,0.003573451
60573.3194,14.9375,46.125,-8.82255,-1.4375,0.003599925
60573.3219,14.75,46.0,-8.562358,-0.875,0.003627957
60573.3244,14.75,45.75,-8.234879,-0.4375,0.003601483
60573.3269,14.6875,45.625,-7.895222,-1.0625,0.003587467
60573.3294,14.75,45.375,-7.602201,-1.1875,0.003571894
60573.3319,14.6875,45.125,-7.388426,-1.3125,0.003599925
60573.3344,14.75,45.0,-7.24767,-1.5,0.003634186
60573.3369,14.625,44.6875,-7.144734,-1.25,0.003615499
60573.3394,14.75,44.6875,-7.040144,-1.25,0.003589024
60573.3419,14.5625,44.6875,-6.914627,-1.625,0.003596811
60573.3444,14.75,44.25,-6.778546,-1.875,0.003595254
60573.3469,14.875,44.25,-6.66371,-1.4375,0.003615499
60573.3494,14.5625,44.0625,-6.603071,-1.5625,0.003590582
60573.3519,14.75,43.9375,-6.611179,-1.5,0.003571894
60573.3544,14.6875,43.9375,-6.676236,-1.4375,0.003581238
60573.3569,14.5625,43.75,-6.766659,-0.9375,0.003593696
60573.3594,14.6875,43.6875,-6.847227,-1.375,0.00360304
60573.3619,14.4375,43.6875,-6.894948,-1.0625,0.003578123
60573.3644,14.6875,43.5625,-6.906388,-1.25,0.003589024
60573.3669,14.625,43.4375,-6.893954,-1.625,0.003589024
60573.3694,14.4375,43.1875,-6.875333,-1.4375,0.003590582
60573.3719,14.625,43.25,-6.863101,-1.3125,0.003576566
60573.3744,14.375,43.0625,-6.860178,-1.125,0.003565665
60573.3769,14.375,42.8125,-6.862303,-1.25,0.003582795
60573.3794,14.5625,43.0,-6.864216,-1.4375,0.003576566
60573.3819,14.5,42.875,-6.864625,-1.3125,0.003568779
60573.3844,14.25,42.625,-6.866721,-1.8125,0.003557878
60573.3869,14.5,42.6875,-6.874476,-2.0625,0.003570337
60573.3894,14.375,42.625,-6.888885,-2.125,0.003571894
60573.3919,14.375,42.5,-6.906404,-2.25,0.00356255
60573.3944,14.375,42.4375,-6.92153,-1.6875,0.003570337
60573.3969,14.3125,42.375,-6.931024,-1.625,0.003553206
60573.3994,14.25,42.25,-6.936903,-2.0,0.003556321
60573.4019,14.4375,42.0625,-6.945697,-2.125,0.003571894
60573.4044,14.4375,42.0625,-6.964421,-1.625,0.003576566
60573.4069,14.3125,42.0,-6.995967,-1.6875,0.003592139
60573.4094,14.25,41.875,-7.036925,-1.6875,0.003559436
60573.4119,14.375,41.875,-7.079867,-1.8125,0.003537633
60573.4144,14.375,41.875,-7.118008,-1.5625,0.003565665
60573.4169,14.375,41.75,-7.149552,-1.3125,0.003601483
60573.4194,14.3125,41.5625,-7.178333,-2.0,0.003590582
60573.4219,14.5,41.5,-7.210531,-1.5,0.003548535
60573.4244,14.3125,41.5,-7.249471,-2.0,0.003543863
60573.4269,14.1875,41.5,-7.292512,-1.625,0.003570337
60573.4294,14.25,41.1875,-7.33181,-1.375,0.003613941
60573.4319,14.3125,41.25,-7.358975,-1.3125,0.003629514
60573.4344,14.4375,41.25,-7.369898,-1.4375,0.003592139
60573.4369,14.3125,41.1875,-7.367096,-1.875,0.003612384
60573.4394,14.1875,40.875,-7.357554,-1.8125,0.003612384
60573.4419,14.1875,41.0,-7.348101,-1.9375,0.003629514
60573.4444,14.1875,41.0625,-7.341614,-1.6875,0.003648202
60573.4469,14.0,40.6875,-7.336514,-1.4375,0.00362017
60573.4494,14.0625,40.6875,-7.329625,-1.5625,0.003631072
60573.4519,14.0,40.75,-7.319221,-1.875,0.003663775
60573.4544,14.0625,40.6875,-7.304646,-2.0,0.003687134
60573.4569,14.125,40.6875,-7.281423,-1.4375,0.003685577
60573.4594,14.125,40.375,-7.235241,-1.4375,0.003649759
60573.4619,13.9375,40.5625,-7.140284,-1.1875,0.003627957
60573.4644,13.75,40.3125,-6.966078,-1.5,0.0036264
60573.4669,14.0,40.375,-6.691483,-1.8125,0.003581238
60573.4694,13.8125,40.25,-6.318628,-2.0625,0.003539191
60573.4719,13.9375,40.25,-5.877087,-1.5,0.003531404
60573.4744,13.75,40.3125,-5.413314,-1.375,0.003536076
60573.4769,13.8125,40.3125,-4.968013,-1.75,0.003540748
60573.4794,13.6875,40.0625,-4.552915,-1.8125,0.003509602
60573.4819,13.8125,40.0625,-4.141072,-1.875,0.003480013
60573.4844,13.875,40.0625,-3.679235,-1.6875,0.003489357
60573.4869,13.8125,40.0,-3.118231,-1.5,0.003508045
60573.4894,13.75,40.0,-2.445248,-1.875,0.003492472
60573.4919,13.5,40.0,-1.698631,-1.375,0.003480013
60573.4944,13.75,39.8125,-0.9539334,-1.5,0.003462883
60573.4969,13.6875,40.0,-0.2859409,-1.4375,0.003476899
60573.4994,13.8125,40.0,0.2722854,-2.0,0.003497144
60573.5019,13.9375,39.875,0.7483513,-1.8125,0.003483128
60573.5044,13.5625,39.75,1.213531,-1.625,0.003473784
60573.5069,13.5,39.625,1.736613,-1.8125,0.003423951
60573.5094,13.4375,39.625,2.335176,-2.1875,0.003433294
60573.5119,13.625,39.6875,2.954644,-2.0625,0.003467555
60573.5144,13.75,39.6875,3.491619,-1.75,0.003458211
60573.5169,13.5625,39.5625,3.851284,-1.3125,0.003437966
60573.5194,13.5,39.4375,4.006076,-1.5,0.003399034
60573.5219,13.5625,39.5,4.017757,-1.6875,0.003427065
60573.5244,13.6875,39.375,4.004455,-1.4375,0.003425508
60573.5269,13.625,39.5,4.067498,-1.3125,0.003371002
60573.5294,13.5,39.5,4.221066,-1.5625,0.00330871
60573.5319,13.375,39.375,4.37145,-1.6875,0.003293137
60573.5344,13.4375,39.125,4.367322,-1.6875,0.003427065
60573.5369,13.5,39.1875,4.098875,-1.4375,0.003646645
60573.5394,13.4375,39.25,3.588838,-1.5,0.003824177
60573.5419,13.6875,39.25,3.014132,-1.25,0.003793031
60573.5444,13.625,39.375,2.631364,-1.3125,0.003360101
60573.5469,13.5,39.125,2.636304,-1.4375,0.002914713
60573.5494,13.3125,39.0625,3.033134,-1.375,0.002906927
60573.5519,13.5,39.0625,3.597075,-1.4375,0.002977005
60573.5544,13.5,39.0625,3.968946,-1.125,0.003029954
60573.5569,13.3125,39.25,3.846956,-1.6875,0.003124949
60573.5594,13.5625,39.125,3.176582,-1.375,0.003241746
60573.5619,13.625,39.25,2.224814,-1.5,0.003285351
60573.5644,13.5,39.1875,1.477239,-1.1875,0.003328955
60573.5669,13.5625,39.0625,1.391157,-0.9375,0.003342971
60573.5694,13.4375,38.9375,2.127928,-0.8125,0.003369445
60573.5719,13.5,38.9375,3.418696,-1.25,0.003416164
60573.5744,13.5625,39.0,4.664073,-1.3125,0.00340682
60573.5769,13.6875,38.75,5.250477,-1.875,0.003394362
60573.5794,13.5625,38.9375,4.941737,-1.625,0.00340682
60573.5819,13.625,38.8125,4.141098,-1.3125,0.003420836
60573.5844,13.4375,38.8125,3.860041,-1.625,0.003428622
60573.5869,13.625,38.6875,5.36275,-1.75,0.00343018
60573.5894,13.5625,38.625,9.618877,-1.1875,0.003425508
60573.5919,13.5625,38.8125,16.80953,-1.375,0.003413049
60573.5944,13.5625,38.8125,26.12944,-1.3125,0.003405263
60573.5969,13.625,38.6875,36.00509,-1.3125,0.003436409
60573.5994,13.625,38.625,44.65825,-1.625,0.003425508
60573.6019,13.5,38.5,50.77919,-1.4375,0.003381903
60573.6044,13.5,38.375,54.01314,-1.875,0.003371002
60573.6069,13.5,38.4375,55.04387,-2.5625,0.003369445
60573.6094,13.5625,38.25,55.23998,-2.75,0.003388133
60573.6119,13.6875,38.3125,56.02697,-2.0625,0.003355429
60573.6144,13.5625,38.1875,58.27017,-2.1875,0.003335184
60573.6169,13.6875,38.1875,61.94114,-2.125,0.003316497
60573.6194,13.5,38.375,66.20107,-1.5,0.003330513
60573.6219,13.5625,38.375,69.83889,-1.6875,0.003318054
60573.6244,13.4375,38.1875,71.84786,-1.75,0.003290023
60573.6269,13.4375,38.25,71.87356,-2.5,0.003283794
60573.6294,13.4375,38.25,70.34313,-1.875,0.003268221
60573.6319,13.5,38.125,68.24271,-1.625,0.003243304
60573.6344,13.25,38.1875,66.66827,-1.9375,0.003213715
60573.6369,13.25,37.9375,66.36724,-2.0625,0.003205928
60573.6394,13.3125,38.0,67.47215,-1.625,0.003196585
60573.6419,13.4375,38.0625,69.52272,-1.625,0.003196585
60573.6444,13.375,38.0,71.73312,-0.875,0.003196585
60573.6469,13.3125,38.0625,73.36256,-1.5,0.003184126
60573.6494,13.375,38.0625,74.01482,-1.25,0.003160767
60573.6519,13.25,37.9375,73.7478,-1.25,0.003138965
60573.6544,13.3125,37.875,72.97156,-1.0,0.003149866
60573.6569,13.25,37.75,72.21225,-1.1875,0.003165439
60573.6594,13.375,37.875,71.86475,-1.625,0.00315298
60573.6619,13.3125,38.125,72.04362,-1.5625,0.003117162
60573.6644,13.1875,37.9375,72.58208,-1.4375,0.003114048
60573.6669,13.3125,38.0,73.15491,-1.375,0.003138965
60573.6694,13.375,37.9375,73.44964,-1.75,0.003142079
60573.6719,13.4375,38.0,73.30215,-1.5,0.003117162
60573.6744,13.4375,38.1875,72.74129,-1.1875,0.003100032
60573.6769,13.5625,38.625,71.93858,-1.5,0.003110933
60573.6794,13.25,40.0,71.10236,-1.5625,0.003137407
60573.6819,13.5,43.8125,70.37507,-1.4375,0.00313585
60573.6844,13.3125,49.375,69.78085,-1.625,0.003106261
60573.6869,13.5,53.3125,69.2401,-1.8125,0.003104704
60573.6894,13.5,55.875,68.63325,-1.875,0.003109376
60573.6919,13.5,57.875,67.87515,-1.875,0.003129621
60573.6944,13.3125,59.125,66.96201,-1.375,0.003114048
60573.6969,13.4375,59.875,65.97089,-1.4375,0.003079787
60573.6994,13.3125,60.5,65.01816,-1.5625,0.003098475
60573.7019,13.5625,61.875,64.20197,-1.8125,0.003075115
60573.7044,13.75,63.4375,63.55962,-1.75,0.003101589
60573.7069,13.5,64.875,63.05802,-1.75,0.00313585
60573.7094,13.5625,65.9375,62.6183,-1.375,0.003103147
60573.7119,13.1875,67.0,62.15875,-1.375,0.003124949
60573.7144,13.625,68.375,61.63037,-1.125,0.003145194
60573.7169,13.5625,69.875,61.03267,-1.25,0.003124949
60573.7194,13.5625,71.3125,60.40418,-1.1875,0.003134293
60573.7219,13.6875,72.8125,59.79847,-1.4375,0.003156095
60573.7244,13.6875,74.3125,59.26037,-1.6875,0.003181012
60573.7269,13.4375,75.625,58.81319,-1.6875,0.003219944
60573.7294,13.5625,76.875,58.45834,-1.5,0.003209043
60573.7319,13.6875,78.125,58.18157,-1.375,0.003191913
60573.7344,13.5625,79.375,57.95765,-1.6875,0.003223059
60573.7369,13.6875,80.3125,57.7522,-1.8125,0.003276007
60573.7394,13.375,81.25,57.51966,-1.75,0.003330513
60573.7419,13.4375,81.8125,57.21178,-1.9375,0.003350757
60573.7444,13.4375,82.6875,56.79225,-1.5,0.003342971
60573.7469,13.5,83.5,56.25571,-1.4375,0.003386575
60573.7494,13.5625,84.25,55.63305,-1.5625,0.003420836
60573.7519,13.5,84.875,54.97573,-1.8125,0.003467555
60573.7544,13.5,85.4375,54.3195,-1.4375,0.003475341
60573.7569,13.4375,86.0,53.64583,-1.125,0.003441081
60573.7594,13.625,86.4375,52.86731,-1.625,0.003451982
60573.7619,13.5625,87.0,51.85411,-1.3125,0.003450425
60573.7644,13.5,87.4375,50.49669,-1.1875,0.003467555
60573.7669,13.5,87.75,48.77537,-1.0625,0.003451982
60573.7694,13.5625,88.125,46.79548,-1.4375,0.003400591
60573.7719,13.5,88.375,44.75962,-1.125,0.00340682
60573.7744,13.3125,88.6875,42.88099,-0.9375,0.003395919
60573.7769,13.4375,88.75,41.27806,-1.375,0.003380346
60573.7794,13.5625,89.1875,39.9079,-0.8125,0.003385018
60573.7819,13.625,89.3125,38.58184,-0.6875,0.003341414
60573.7844,13.5,89.5625,37.06448,-1.25,0.003336742
60573.7869,13.5625,89.375,35.20924,-1.3125,0.003346086
60573.7894,13.5625,89.5625,33.05633,-1.0,0.003341414
60573.7919,13.5,89.75,30.83257,-1.3125,0.0033492
60573.7944,13.4375,89.375,28.84277,-1.0625,0.003346086
60573.7969,13.5,89.4375,27.30407,-1.125,0.0033492
60573.7994,13.6875,89.125,26.21172,-1.0,0.0033492
60573.8019,13.625,89.1875,25.31596,-0.6875,0.003347643
60573.8044,13.625,88.9375,24.23369,-0.875,0.003338299
60573.8069,13.375,88.8125,22.64591,-0.4375,0.003347643
60573.8094,13.5,88.625,20.48079,-0.6875,0.003352315
60573.8119,13.4375,88.375,17.98275,-0.625,0.003327398
60573.8144,13.4375,88.125,15.62501,-0.9375,0.003322726
60573.8169,13.375,87.8125,13.90359,-1.5,0.003296252
60573.8194,13.5,87.6875,13.11456,-1.375,0.003300924
60573.8219,13.4375,87.25,13.22552,-1.5,0.003347643
60573.8244,13.4375,86.8125,13.90426,-1.4375,0.003336742
60573.8269,13.4375,86.4375,14.68413,-1.4375,0.003321169
60573.8294,13.4375,86.125,15.17614,-1.5625,0.003304038
60573.8319,13.4375,85.5,15.21925,-1.375,0.003321169
60573.8344,13.25,85.1875,14.89917,-0.875,0.003350757
60573.8369,13.375,84.5,14.44166,-0.75,0.003328955
60573.8394,13.375,84.125,14.05344,-1.4375,0.003316497
60573.8419,13.25,83.5,13.80492,-1.375,0.003316497
60573.8444,13.3125,82.875,13.61617,-1.625,0.003328955
60573.8469,13.1875,82.3125,13.34153,-1.125,0.003350757
60573.8494,13.0625,81.75,12.88931,-0.875,0.003335184
60573.8519,12.9375,80.9375,12.29698,-1.375,0.003328955
60573.8544,13.25,80.375,11.71506,-1.3125,0.003318054
60573.8569,13.0625,79.6875,11.31339,-0.75,0.003322726
60573.8594,13.1875,79.0,11.17337,-1.0625,0.00333207
60573.8619,12.9375,78.1875,11.2376,-1.0,0.00333207
60573.8644,12.8125,77.5625,11.34955,-1.3125,0.003318054
60573.8669,12.875,76.6875,11.35702,-1.1875,0.00330871
60573.8694,13.0625,76.0,11.21247,-1.0625,0.00333207
60573.8719,12.9375,75.3125,11.0052,-1.0,0.003318054
60573.8744,12.875,74.3125,10.90408,-0.8125,0.003325841
60573.8769,12.6875,73.5,11.04772,-1.1875,0.003322726
60573.8794,12.6875,72.8125,11.45324,-1.0625,0.003276007
60573.8819,12.8125,71.875,12.00313,-1.0625,0.003299367
60573.8844,12.8125,71.1875,12.51851,-0.8125,0.003296252
60573.8869,13.0,70.5,12.86894,-1.25,0.003299367
60573.8894,12.625,69.6875,13.04347,-1.0,0.003311825
60573.8919,12.5,69.0625,13.13025,-0.9375,0.003300924
60573.8944,12.625,68.4375,13.21528,-1.0625,0.003322726
60573.8969,12.4375,67.875,13.26961,-0.75,0.003310268
60573.8994,12.6875,67.375,13.11309,-0.8125,0.003277564
60573.9019,12.6875,66.875,12.50156,-1.0625,0.003285351
60573.9044,12.8125,66.5625,11.30481,-1.0625,0.00329158
60573.9069,12.5625,66.0,9.674464,-0.9375,0.003318054
60573.9094,12.4375,65.375,8.086633,-0.75,0.003293137
60573.9119,12.625,65.0625,7.200019,-0.9375,0.003261991
60573.9144,12.75,64.6875,7.572425,-1.3125,0.003265106
60573.9169,12.6875,64.0625,9.368085,-0.6875,0.003299367
60573.9194,12.5625,63.625,12.21292,-0.5,0.003324283
60573.9219,12.625,63.125,15.29313,-0.6875,0.003290023
60573.9244,12.5625,62.8125,17.67224,-1.3125,0.003263549
60573.9269,12.5625,62.1875,18.68579,-0.9375,0.003261991
60573.9294,12.5625,61.75,18.22436,-1.25,0.003290023
60573.9319,12.75,61.375,16.76371,-1.5,0.003313382
60573.9344,12.5,60.875,15.1265,-1.5,0.003279122
60573.9369,12.4375,60.5,14.09261,-1.375,0.003260434
60573.9394,12.6875,60.0,14.04861,-1.375,0.003255762
60573.9419,12.6875,59.75,14.84531,-1.125,0.003286908
60573.9444,12.5625,59.4375,15.92094,-1.375,0.003302481
60573.9469,12.5625,58.875,16.61314,-1.0,0.003288465
60573.9494,12.6875,58.5625,16.49322,-1.5625,0.003257319
60573.9519,12.75,58.375,15.55445,-1.0625,0.003235517
60573.9544,12.75,58.0,14.17242,-1.0625,0.003269778
60573.9569,12.5,57.5,12.87769,-1.25,0.003265106
60573.9594,12.6875,57.375,12.07354,-1.5,0.003240189
60573.9619,12.6875,57.25,11.84893,-1.6875,0.003272892
60573.9644,12.5625,56.875,11.97345,-1.4375,0.003263549
60573.9669,12.5625,56.6875,12.05852,-1.6875,0.003272892
60573.9694,12.625,56.4375,11.78196,-1.875,0.003271335
60573.9719,12.875,56.25,11.05256,-1.4375,0.00325109
60573.9744,12.5625,55.875,10.0332,-1.375,0.003285351
60573.9769,12.5,55.625,9.026214,-1.625,0.003286908
60573.9794,12.5,55.4375,8.29751,-1.8125,0.003266663
60573.9819,12.75,55.0,7.940366,-1.75,0.003247976
60573.9844,12.5625,54.875,7.847685,-1.5625,0.003215272
60573.9869,12.8125,54.5,7.795535,-1.5625,0.00325109
60573.9894,12.6875,54.5,7.579716,-1.625,0.003269778
60573.9919,12.6875,54.25,7.125377,-1.6875,0.003294695
60573.9944,12.5,54.0625,6.513035,-1.9375,0.003297809
60573.9969,12.8125,53.75,5.916878,-2.0,0.003271335
60573.9994,12.8125,53.5,5.500856,-1.9375,0.003316497
60574.0019,12.75,53.1875,5.331989,-1.9375,0.003338299
60574.0044,12.8125,53.125,5.353376,-2.0625,0.003346086
60574.0069,12.8125,52.8125,5.423749,-1.6875,0.003335184
60574.0094,12.75,52.625,5.395437,-1.625,0.003325841
60574.0119,12.75,52.4375,5.185448,-1.3125,0.003318054
60574.0144,12.8125,52.25,4.807398,-1.5625,0.003342971
60574.0169,12.8125,52.125,4.355527,-1.125,0.00336633
60574.0194,12.75,51.8125,3.956725,-1.25,0.003328955
60574.0219,12.875,51.6875,3.718783,-1.6875,0.00329158
60574.0244,12.8125,51.625,3.695642,-1.1875,0.00329158
60574.0269,12.5,51.3125,3.877754,-1.0625,0.003304038
60574.0294,12.6875,51.125,4.204242,-1.375,0.003277564
60574.0319,12.9375,51.0625,4.590364,-1.625,0.003212158
60574.0344,12.875,50.8125,4.957859,-1.8125,0.0032106
60574.0369,12.75,50.5,5.262468,-1.6875,0.003205928
60574.0394,12.8125,50.5,5.509465,-1.625,0.003204371
60574.0419,12.75,50.3125,5.75125,-1.125,0.003209043
60574.0444,12.75,50.0,6.062137,-1.1875,0.003182569
60574.0469,12.9375,49.9375,6.498509,-1.5,0.003184126
60574.0494,12.8125,49.875,7.063732,-1.6875,0.003166996
60574.0519,12.6875,49.5,7.698724,-1.625,0.003157652
60574.0544,12.6875,49.4375,8.309833,-1.5,0.003162324
60574.0569,12.8125,49.375,8.824949,-1.6875,0.00315298
60574.0594,12.8125,49.25,9.247701,-1.875,0.003154538
60574.0619,12.6875,49.0,9.674079,-1.25,0.003165439
60574.0644,12.6875,48.875,10.2509,-1.0,0.003163881
60574.0669,12.6875,48.6875,11.08801,-1.3125,0.003134293
60574.0694,12.6875,48.5,12.16849,-1.0625,0.00311872
60574.0719,12.875,48.375,13.31215,-1.25,0.003143636
60574.0744,12.5625,48.25,14.22569,-1.125,0.00313585
60574.0769,12.5625,48.125,14.6275,-1.125,0.003115605
60574.0794,12.5625,48.0,14.38923,-0.875,0.003087574
60574.0819,12.6875,47.875,13.61757,-1.125,0.003087574
60574.0844,12.5,47.625,12.62361,-1.0625,0.003104704
60574.0869,12.5625,47.75,11.78437,-1.375,0.003050198
60574.0894,12.4375,47.5,11.36152,-1.0625,0.00298012
60574.0919,12.4375,47.4375,11.37194,-1.25,0.002991021
60574.0944,12.5,47.4375,11.58341,-1.5625,0.003148308
60574.0969,12.3125,47.3125,11.64284,-1.4375,0.003442638
60574.0994,12.4375,47.125,11.27091,-1.75,0.003702707
60574.1019,12.3125,47.0625,10.42063,-1.5,0.003627957
60574.1044,12.375,47.0625,9.308148,-1.875,0.003015938
60574.1069,12.0625,46.75,8.298553,-1.375,0.002403919
60574.1094,12.25,46.75,7.707552,-1.625,0.002421049
60574.1119,12.4375,46.8125,7.628958,-1.6875,0.00255342
60574.1144,12.375,46.5,7.884703,-1.5625,0.002643743
60574.1169,12.3125,46.625,8.125201,-1.5,0.002729395
60574.1194,12.4375,46.6875,8.022579,-1.625,0.002833734
60574.1219,12.375,46.1875,7.446755,-2.0625,0.002928729
60574.1244,12.1875,46.3125,6.523223,-2.4375,0.00298012
60574.1269,12.375,46.25,5.545672,-2.3125,0.003005037
60574.1294,12.3125,46.125,4.791396,-1.9375,0.003000365
60574.1319,12.3125,46.0625,4.35654,-2.0625,0.003019052
60574.1344,12.1875,46.125,4.106561,-1.875,0.003062657
60574.1369,12.1875,45.9375,3.777159,-2.25,0.003068886
60574.1394,12.1875,45.6875,3.163889,-2.125,0.003057985
60574.1419,12.25,45.6875,2.288518,-2.1875,0.003048641
60574.1444,12.0625,45.625,1.439556,-1.75,0.003065771
60574.1469,12.1875,45.5625,1.056935,-2.1875,0.003045527
60574.1494,12.0625,45.375,1.523701,-1.9375,0.003039297
60574.1519,11.9375,45.25,2.983552,-1.6875,0.003040855
60574.1544,12.25,45.1875,5.289881,-2.0,0.003026839
60574.1569,12.0,45.0625,8.116535,-1.8125,0.003051756
60574.1594,12.0625,45.0625,11.1655,-1.625,0.003048641
60574.1619,12.125,44.875,14.3488,-1.75,0.003006594
60574.1644,12.0625,44.9375,17.83567,-1.625,0.002991021
60574.1669,12.0625,44.6875,21.93431,-1.75,0.002992578
60574.1694,12.0,44.5625,26.87442,-1.9375,0.003009709
60574.1719,12.1875,44.3125,32.61738,-1.8125,0.002978563
60574.1744,11.9375,44.5,38.80826,-2.125,0.002952089
60574.1769,12.0625,44.25,44.90297,-1.5,0.002952089
60574.1794,12.0625,44.1875,50.40364,-1.4375,0.002964547
60574.1819,12.25,44.0625,55.07242,-2.0,0.002975448
60574.1844,12.0,44.1875,59.00101,-1.75,0.002944302
60574.1869,12.0,43.6875,62.49894,-1.5625,0.002925614
60574.1894,11.9375,43.875,65.86472,-1.5625,0.002903812
60574.1919,12.0,43.875,69.17149,-1.625,0.002920942
60574.1944,11.9375,43.9375,72.19323,-1.5625,0.002952089
60574.1969,11.9375,43.625,74.51682,-1.75,0.002931844
60574.1994,11.9375,43.5625,75.78062,-1.5625,0.002906927
60574.2019,11.625,43.4375,75.90908,-1.6875,0.002880453
60574.2044,11.75,43.375,75.20842,-1.9375,0.002891354
60574.2069,11.8125,43.5,74.26859,-1.875,0.002894468
60574.2094,11.8125,43.375,73.71751,-1.375,0.002889796
60574.2119,11.8125,43.3125,73.95151,-1.6875,0.002885125
60574.2144,11.9375,43.125,74.97911,-1.75,0.002872666
60574.2169,11.75,43.125,76.45133,-2.0625,0.002888239
60574.2194,11.875,43.0,77.85657,-1.75,0.002875781
60574.2219,11.6875,42.9375,78.77375,-1.5,0.002860208
60574.2244,11.625,42.6875,79.05504,-1.3125,0.002877338
60574.2269,11.6875,42.75,78.8559,-1.5,0.002874223
60574.2294,11.5625,42.6875,78.51329,-1.4375,0.002866437
60574.2319,11.625,42.4375,78.35085,-1.6875,0.002861765
60574.2344,11.625,42.4375,78.51826,-2.0625,0.002852421
60574.2369,11.875,42.375,78.94297,-2.0,0.00288201
60574.2394,11.75,42.375,79.40495,-2.0,0.002886682
60574.2419,11.5,42.4375,79.68004,-1.8125,0.002896026
60574.2444,11.8125,42.6875,79.66652,-1.8125,0.002883567
60574.2469,11.875,43.125,79.42812,-1.9375,0.002885125
60574.2494,11.75,44.0,79.1391,-1.75,0.002908484
60574.2519,11.75,45.1875,78.97102,-2.3125,0.002910041
60574.2544,11.9375,47.3125,78.98909,-2.25,0.00293963
60574.2569,11.8125,49.75,79.11359,-2.375,0.002919385
60574.2594,11.875,52.0625,79.16322,-2.0,0.002896026
60574.2619,11.875,53.9375,78.95167,-2.1875,0.002910041
60574.2644,11.875,55.5,78.38392,-2.1875,0.002938073
60574.2669,12.0,56.75,77.50306,-1.6875,0.002955203
60574.2694,11.8125,57.625,76.46752,-1.6875,0.002934958
60574.2719,12.125,58.625,75.47474,-1.125,0.002931844
60574.2744,12.125,59.5625,74.67245,-1.5625,0.002930286
60574.2769,12.0625,60.375,74.0989,-1.4375,0.002978563
60574.2794,11.875,61.25,73.68019,-1.75,0.003014381
60574.2819,12.1875,62.1875,73.27969,-2.125,0.002983235
60574.2844,12.25,63.1875,72.77156,-1.875,0.002983235
60574.2869,12.125,64.125,72.10412,-2.125,0.003045527
60574.2894,12.1875,65.0,71.32158,-2.0,0.003087574
60574.2919,12.0625,66.1875,70.53768,-1.9375,0.003115605
60574.2944,12.1875,67.4375,69.87551,-1.5625,0.003124949
60574.2969,12.125,68.75,69.40376,-1.3125,0.003173225
60574.2994,12.25,69.75,69.10212,-1.6875,0.003205928
60574.3019,12.0625,70.8125,68.87243,-1.9375,0.003249533
60574.3044,12.3125,71.75,68.5909,-1.6875,0.003265106
60574.3069,12.0,73.0625,68.17455,-2.125,0.003297809
60574.3094,12.1875,73.875,67.62504,-1.6875,0.003344528
60574.3119,12.25,74.5625,67.02692,-1.875,0.003336742
60574.3144,12.25,75.625,66.49565,-1.5625,0.003335184
60574.3169,12.25,76.3125,66.10237,-1.25,0.003322726
60574.3194,12.125,76.9375,65.81744,-1.4375,0.003299367
60574.3219,12.25,77.625,65.50786,-1.375,0.003311825
60574.3244,12.1875,78.3125,64.99809,-1.75,0.003302481
60574.3269,12.25,79.0,64.16625,-2.0,0.00329158
60574.3294,12.1875,79.5,63.02263,-2.0,0.003266663
60574.3319,12.125,79.875,61.72074,-1.4375,0.003247976
60574.3344,12.125,80.375,60.48446,-1.5625,0.003229288
60574.3369,12.375,80.8125,59.48182,-1.625,0.003215272
60574.3394,12.375,81.1875,58.71252,-1.5625,0.003230845
60574.3419,12.0625,81.3125,57.97741,-1.8125,0.003198142
60574.3444,12.3125,81.5625,56.95944,-2.0625,0.00317634
60574.3469,12.25,82.0,55.38517,-1.375,0.003201257
60574.3494,12.25,82.1875,53.18454,-1.5625,0.003199699
60574.3519,12.125,82.25,50.5584,-1.1875,0.003202814
60574.3544,12.1875,82.625,47.90418,-1.5,0.003170111
60574.3569,12.25,82.8125,45.62651,-1.4375,0.003165439
60574.3594,12.375,82.875,43.9243,-2.0,0.003190355
60574.3619,12.3125,82.875,42.67096,-1.625,0.00321683
60574.3644,12.25,83.0,41.46244,-2.0625,0.003212158
60574.3669,12.1875,82.9375,39.82245,-2.0,0.003182569
60574.3694,12.25,82.9375,37.46766,-2.0625,0.003166996
60574.3719,12.4375,83.0,34.49553,-1.875,0.0032106
60574.3744,12.3125,83.0,31.38919,-1.6875,0.003204371
60574.3769,12.3125,82.8125,28.82466,-1.4375,0.003205928
60574.3794,12.0625,82.5625,27.3685,-1.1875,0.003185684
60574.3819,12.1875,82.375,27.21406,-1.75,0.003185684
60574.3844,12.0625,82.25,28.08832,-1.5,0.003212158
60574.3869,12.375,82.125,29.37518,-1.375,0.003212158
60574.3894,12.375,81.875,30.39431,-1.4375,0.003195027
60574.3919,12.1875,81.6875,30.69581,-1.4375,0.003187241
60574.3944,12.1875,81.4375,30.22556,-1.9375,0.003202814
60574.3969,12.1875,81.1875,29.28804,-1.8125,0.00319347
60574.3994,12.1875,80.75,28.33994,-2.0,0.003198142
60574.4019,12.125,80.375,27.73277,-1.4375,0.003165439
60574.4044,12.3125,80.0625,27.54158,-1.5,0.003184126
60574.4069,12.3125,79.5,27.56193,-1.375,0.003223059
60574.4094,12.0,79.0625,27.46131,-1.5,0.003204371
60574.4119,11.9375,78.5,26.98898,-2.25,0.003168553
60574.4144,12.25,78.125,26.1234,-1.9375,0.003163881
60574.4169,12.3125,77.5625,25.0796,-1.5625,0.00317634
60574.4194,12.25,77.0625,24.18179,-1.4375,0.003209043
60574.4219,12.25,76.5,23.68163,-1.5,0.003199699
60574.4244,11.8125,76.0,23.62712,-1.75,0.003179454
60574.4269,11.9375,75.1875,23.85174,-2.0625,0.00315298
60574.4294,12.0,74.75,24.07974,-1.9375,0.003174782
60574.4319,12.25,73.875,24.07876,-1.75,0.003215272
60574.4344,12.125,73.125,23.76969,-1.875,0.003195027
60574.4369,12.0625,72.4375,23.23619,-1.75,0.003181012
60574.4394,11.875,71.625,22.6409,-1.5625,0.003162324
60574.4419,11.9375,70.75,22.11082,-1.625,0.003182569
60574.4444,12.125,70.125,21.66752,-1.75,0.003219944
60574.4469,12.0625,69.375,21.24422,-1.75,0.003202814
60574.4494,12.0,68.625,20.77167,-1.875,0.003190355
60574.4519,12.0625,68.0,20.2671,-1.9375,0.003163881
60574.4544,11.875,67.375,19.85721,-1.4375,0.003182569
60574.4569,11.625,66.875,19.7079,-1.75,0.003202814
60574.4594,11.9375,66.25,19.89699,-1.875,0.003191913
60574.4619,11.9375,65.875,20.31113,-1.625,0.003187241
60574.4644,11.9375,65.375,20.64421,-1.9375,0.003174782
60574.4669,11.8125,65.125,20.52161,-1.9375,0.003201257
60574.4694,12.125,64.6875,19.69906,-2.0,0.003188798
60574.4719,12.1875,64.3125,18.23254,-1.9375,0.003196585
60574.4744,12.0,63.75,16.51768,-1.9375,0.003198142
60574.4769,11.875,63.25,15.15738,-2.0625,0.003182569
60574.4794,11.9375,62.6875,14.70536,-1.75,0.003190355
60574.4819,12.1875,62.3125,15.40489,-1.75,0.003201257
60574.4844,12.125,61.9375,17.0525,-1.625,0.003199699
60574.4869,12.1875,61.5,19.06174,-1.75,0.003187241
60574.4894,12.0,61.125,20.70526,-1.8125,0.003185684
60574.4919,11.9375,60.5625,21.42437,-1.5625,0.003218387
60574.4944,12.0,60.125,21.06065,-1.6875,0.003196585
60574.4969,12.0625,59.75,19.90191,-1.6875,0.003179454
60574.4994,12.1875,59.25,18.52444,-1.875,0.003162324
60574.5019,12.0,58.9375,17.51333,-1.625,0.003173225
60574.5044,12.1875,58.375,17.1973,-1.625,0.003212158
60574.5069,11.875,58.3125,17.52205,-1.6875,0.003199699
60574.5094,12.0625,58.0,18.11354,-1.875,0.003181012
60574.5119,12.0625,57.625,18.48741,-1.6875,0.003148308
60574.5144,12.1875,57.1875,18.29295,-1.8125,0.003179454
60574.5169,12.1875,56.875,17.47035,-1.1875,0.003205928
60574.5194,12.3125,56.625,16.25197,-1.625,0.003160767
60574.5219,11.9375,56.25,15.0203,-1.4375,0.003154538
60574.5244,12.0625,56.0,14.10536,-1.75,0.003165439
60574.5269,12.1875,55.875,13.62934,-1.8125,0.00317634
60574.5294,12.0625,55.5625,13.46996,-1.5625,0.003202814
60574.5319,12.3125,55.375,13.35282,-2.0,0.00317634
60574.5344,12.0625,54.9375,13.01243,-1.6875,0.003166996
60574.5369,12.1875,54.8125,12.33308,-1.5625,0.003174782
60574.5394,12.1875,54.625,11.39824,-1.8125,0.003195027
60574.5419,12.0625,54.375,10.43034,-1.1875,0.003198142
60574.5444,11.875,53.9375,9.662087,-1.125,0.003168553
60574.5469,12.0625,53.75,9.213244,-1.125,0.00317634
60574.5494,12.1875,53.625,9.038626,-1.4375,0.003185684
60574.5519,12.125,53.4375,8.969858,-1.25,0.003221501
60574.5544,12.1875,53.0625,8.821299,-1.4375,0.003219944
60574.5569,12.1875,52.8125,8.497723,-1.4375,0.003224616
60574.5594,11.9375,52.5625,8.043427,-1.5,0.003258877
60574.5619,12.0625,52.4375,7.607627,-2.3125,0.00325109
60574.5644,12.25,52.1875,7.350135,-2.375,0.003277564
60574.5669,12.3125,51.9375,7.343255,-2.0625,0.003266663
60574.5694,12.25,51.6875,7.525071,-1.375,0.003247976
60574.5719,12.1875,51.625,7.733427,-1.6875,0.003285351
60574.5744,12.125,51.5,7.799103,-1.75,0.003294695
60574.5769,12.125,51.1875,7.645912,-1.5,0.003305596
60574.5794,12.1875,51.0625,7.341086,-1.5,0.003282236
60574.5819,12.375,50.875,7.064519,-2.125,0.003268221
60574.5844,12.0625,50.6875,7.012207,-2.0625,0.003255762
60574.5869,12.25,50.5,7.286026,-1.875,0.003243304
60574.5894,12.25,50.375,7.830499,-1.5625,0.003240189
60574.5919,12.0625,50.125,8.456949,-1.9375,0.00317634
60574.5944,12.25,49.875,8.944434,-2.0,0.003142079
60574.5969,12.25,49.6875,9.166558,-1.9375,0.003149866
60574.5994,12.0625,49.5,9.176023,-2.125,0.003163881
60574.6019,12.1875,49.4375,9.195303,-2.0,0.003166996
60574.6044,12.1875,49.1875,9.51217,-1.8125,0.003109376
60574.6069,12.0625,49.1875,10.32641,-1.6875,0.003101589
60574.6094,12.1875,48.875,11.62762,-1.8125,0.003126506
60574.6119,12.3125,48.75,13.17214,-1.4375,0.003131178
60574.6144,12.125,48.5,14.57852,-1.5625,0.003146751
60574.6169,12.0625,48.5,15.50104,-1.875,0.003121834
60574.6194,12.25,48.3125,15.7964,-1.8125,0.003086016
60574.6219,12.25,48.0625,15.59778,-1.875,0.003086016
60574.6244,12.125,47.9375,15.25356,-1.625,0.003103147
60574.6269,12.0625,47.75,15.15578,-2.0,0.003131178
60574.6294,11.9375,47.625,15.54106,-2.375,0.003086016
60574.6319,12.125,47.6875,16.36533,-2.0625,0.00307823
60574.6344,12.0625,47.3125,17.3186,-2.0,0.003115605
60574.6369,12.0625,47.1875,17.97629,-1.6875,0.003103147
60574.6394,12.0625,47.125,18.01266,-1.8125,0.003110933
60574.6419,11.9375,47.0,17.36771,-2.0625,0.003079787
60574.6444,12.0,46.9375,16.28001,-2.375,0.003073558
60574.6469,12.125,46.6875,15.1663,-1.8125,0.003029954
60574.6494,11.875,46.75,14.4088,-2.0625,0.002995693
60574.6519,11.9375,46.5,14.16087,-2.1875,0.003036183
60574.6544,11.9375,46.5,14.27417,-2.0625,0.003240189
60574.6569,11.8125,46.375,14.38711,-2.1875,0.003581238
60574.6594,11.625,46.0625,14.12849,-2.1875,0.00372451
60574.6619,12.0625,46.1875,13.32686,-2.1875,0.00333207
60574.6644,12.0,46.125,12.11281,-2.375,0.00266866
60574.6669,11.875,45.9375,10.85457,-2.1875,0.002413263
60574.6694,11.6875,45.75,9.960374,-2.0,0.002519159
60574.6719,11.8125,45.75,9.655235,-1.8125,0.002617269
60574.6744,11.75,45.6875,9.85201,-1.5,0.002730952
60574.6769,11.75,45.6875,10.19187,-1.875,0.002805702
60574.6794,11.5625,45.5,10.23378,-1.625,0.002906927
60574.6819,11.8125,45.375,9.68981,-1.875,0.002992578
60574.6844,11.6875,45.375,8.577184,-1.875,0.003017495
60574.6869,11.5625,45.25,7.202622,-1.75,0.003047084
60574.6894,11.625,45.25,5.986642,-2.1875,0.00302061
60574.6919,11.875,45.125,5.226469,-2.3125,0.003028396
60574.6944,11.5625,45.0625,4.932697,-2.1875,0.003086016
60574.6969,11.4375,44.875,4.835882,-2.1875,0.003103147
60574.6994,11.625,44.875,4.561155,-1.9375,0.00307823
60574.7019,11.625,44.6875,3.876151,-2.125,0.003050198
60574.7044,11.5625,44.625,2.868792,-1.6875,0.003051756
60574.7069,11.5,44.5625,1.948762,-1.9375,0.003086016
60574.7094,11.5,44.4375,1.661808,-2.1875,0.003081344
60574.7119,11.5,44.375,2.413818,-2.0625,0.003062657
60574.7144,11.625,44.4375,4.257414,-2.25,0.003036183
60574.7169,11.625,44.375,6.863585,-2.3125,0.00303774
60574.7194,11.6875,44.0625,9.701897,-2.0,0.003045527
60574.7219,11.5,43.875,12.33566,-1.9375,0.003029954
60574.7244,11.625,43.875,14.6708,-1.625,0.003011266
60574.7269,11.5,43.875,17.01717,-1.75,0.003003479
60574.7294,11.5625,43.75,19.92129,-1.1875,0.003012823
60574.7319,11.5,43.625,23.85501,-1.8125,0.003003479
60574.7344,11.5625,43.625,28.92607,-2.0625,0.003003479
60574.7369,11.5625,43.4375,34.77039,-1.6875,0.002989464
60574.7394,11.5625,43.375,40.69016,-2.0,0.002987906
60574.7419,11.625,43.25,45.97031,-1.75,0.002994136
60574.7444,11.6875,43.375,50.20942,-2.1875,0.002972333
60574.7469,11.5,43.3125,53.48954,-2.0625,0.002952089
60574.7494,11.625,43.1875,56.29431,-2.4375,0.002928729
60574.7519,11.5,43.125,59.22126,-2.1875,0.002944302
60574.7544,11.6875,43.0625,62.63764,-2.1875,0.002986349
60574.7569,11.3125,43.0625,66.46329,-2.3125,0.002961432
60574.7594,11.4375,42.6875,70.19276,-2.0625,0.00293963
60574.7619,11.4375,42.75,73.1435,-1.6875,0.002938073
60574.7644,11.625,42.625,74.8006,-1.625,0.002947417
60574.7669,11.5625,42.8125,75.0802,-2.0,0.002977005
60574.7694,11.4375,42.625,74.38064,-1.625,0.002948974
60574.7719,11.5,42.5625,73.40276,-2.1875,0.002908484
60574.7744,11.5,42.5,72.83336,-2.4375,0.002916271
60574.7769,11.5625,42.5,73.05463,-2.25,0.002945859
60574.7794,11.375,42.375,74.01793,-2.1875,0.002961432
60574.7819,11.1875,42.25,75.32908,-2.25,0.002938073
60574.7844,11.4375,42.125,76.48559,-2.25,0.002927172
60574.7869,11.4375,42.1875,77.13578,-2.5625,0.002931844
60574.7894,11.375,41.9375,77.23067,-2.375,0.002952089
60574.7919,11.3125,41.875,77.00619,-2.375,0.002952089
60574.7944,11.25,41.6875,76.82378,-1.8125,0.002941187
60574.7969,11.4375,41.6875,76.96613,-2.1875,0.002924057
60574.7994,11.4375,41.625,77.49707,-2.125,0.002911599
60574.8019,11.5,41.875,78.24973,-2.4375,0.002952089
60574.8044,11.375,41.8125,78.93495,-2.0625,0.002942745
60574.8069,11.4375,41.9375,79.30196,-2.375,0.002941187
60574.8094,11.625,42.3125,79.26295,-2.3125,0.002942745
60574.8119,11.5,42.625,78.92307,-1.875,0.002931844
60574.8144,11.5,43.3125,78.51019,-2.0,0.002953646
60574.8169,11.6875,44.4375,78.25117,-2.3125,0.002947417
60574.8194,11.6875,46.125,78.262,-2.1875,0.002944302
60574.8219,11.625,47.9375,78.50426,-2.4375,0.002945859
60574.8244,11.5,49.8125,78.82101,-2.375,0.002925614
60574.8269,11.5,51.5,79.02474,-2.5,0.002953646
60574.8294,11.8125,52.875,78.98775,-2.1875,0.002964547
60574.8319,11.75,54.0,78.69176,-1.9375,0.00295676
60574.8344,11.625,55.0625,78.21813,-2.125,0.002964547
60574.8369,11.75,56.125,77.69244,-2.3125,0.003009709
60574.8394,11.75,57.0625,77.21731,-2.375,0.003025282
60574.8419,11.8125,57.8125,76.82816,-2.0625,0.003003479
60574.8444,11.8125,58.75,76.49066,-2.5625,0.003028396
60574.8469,11.8125,59.875,76.13566,-2.25,0.003062657
60574.8494,11.8125,60.6875,75.7085,-2.0625,0.003115605
60574.8519,11.6875,61.4375,75.20411,-2.25,0.003157652
60574.8544,11.8125,62.375,74.66888,-2.4375,0.003162324
60574.8569,11.75,63.5,74.17071,-2.4375,0.003195027
60574.8594,11.8125,64.625,73.75423,-2.5625,0.003255762
60574.8619,11.875,65.875,73.40825,-2.625,0.003311825
60574.8644,11.875,67.1875,73.06454,-2.4375,0.003355429
60574.8669,11.8125,68.25,72.63091,-2.5,0.003356987
60574.8694,11.875,69.3125,72.04356,-2.25,0.003363216
60574.8719,11.875,70.3125,71.31099,-2.4375,0.003386575
60574.8744,11.75,71.25,70.52319,-2.125,0.003403706
60574.8769,11.9375,72.25,69.81612,-1.6875,0.003399034
60574.8794,11.8125,73.125,69.30498,-1.5,0.003367888
60574.8819,11.75,73.9375,69.01863,-1.4375,0.003346086
60574.8844,12.0625,74.875,68.87159,-2.25,0.003325841
60574.8869,11.9375,75.5625,68.69344,-2.1875,0.003328955
60574.8894,11.8125,76.3125,68.30625,-2.1875,0.003304038
60574.8919,11.875,76.875,67.61266,-2.1875,0.003268221
60574.8944,11.8125,77.8125,66.64732,-2.4375,0.003268221
60574.8969,11.875,78.3125,65.55833,-1.375,0.003237074
60574.8994,11.8125,78.8125,64.52192,-1.75,0.003229288
60574.9019,11.9375,79.375,63.63089,-1.9375,0.003230845
60574.9044,11.8125,79.8125,62.82013,-1.8125,0.003191913
60574.9069,11.5625,80.125,61.87659,-1.75,0.003224616
60574.9094,11.8125,80.375,60.53989,-2.1875,0.003247976
60574.9119,11.9375,80.875,58.64938,-1.9375,0.00323396
60574.9144,11.8125,81.3125,56.25791,-2.125,0.003219944
60574.9169,11.6875,81.5625,53.64567,-2.0625,0.003215272
60574.9194,11.9375,81.875,51.20837,-2.1875,0.003215272
60574.9219,12.0,82.1875,49.26567,-2.75,0.003241746
60574.9244,11.75,82.3125,47.88391,-2.0,0.003229288
60574.9269,11.8125,82.1875,46.81115,-1.9375,0.003205928
60574.9294,11.8125,82.4375,45.57475,-1.5625,0.003218387
60574.9319,11.875,82.5625,43.71021,-1.5625,0.003219944
60574.9344,11.8125,82.5625,41.01725,-1.375,0.00321683
60574.9369,11.8125,82.375,37.715,-2.125,0.00323396
60574.9394,11.8125,82.75,34.40695,-2.1875,0.003209043
60574.9419,11.6875,82.625,31.85529,-2.375,0.003204371
60574.9444,11.875,82.625,30.65908,-2.3125,0.003218387
60574.9469,11.6875,82.5,30.98378,-2.1875,0.003258877
60574.9494,11.6875,82.375,32.472,-2.375,0.003232403
60574.9519,11.9375,82.1875,34.38137,-2.375,0.00317634
60574.9544,11.875,81.875,35.88903,-2.125,0.00317634
60574.9569,11.625,81.75,36.4227,-1.9375,0.003204371
60574.9594,11.8125,81.625,35.86601,-2.1875,0.003227731
60574.9619,11.6875,81.375,34.5491,-2.0625,0.00321683
60574.9644,11.8125,80.75,33.04067,-2.5,0.003187241
60574.9669,11.75,80.4375,31.85321,-2.375,0.003205928
60574.9694,11.625,80.25,31.20971,-2.5,0.003202814
60574.9719,11.6875,79.6875,30.98149,-2.3125,0.003212158
60574.9744,11.625,79.25,30.81346,-2.125,0.003219944
60574.9769,11.625,78.8125,30.35623,-2.1875,0.003198142
60574.9794,11.6875,78.3125,29.47391,-2.0,0.003219944
60574.9819,11.9375,77.875,28.31555,-1.5625,0.003213715
60574.9844,11.625,77.3125,27.2177,-2.0,0.003198142
60574.9869,11.75,76.625,26.501,-1.875,0.003205928
60574.9894,11.75,76.0625,26.27929,-2.0625,0.003219944
60574.9919,11.5625,75.25,26.39227,-2.0625,0.003227731
60574.9944,11.625,74.375,26.50026,-2.5,0.003230845
60574.9969,11.6875,73.75,26.28585,-2.4375,0.003209043
60574.9994,11.5,73.0625,25.64573,-2.4375,0.003187241
60575.0019,11.6875,72.25,24.75885,-2.5,0.003202814
60575.0044,11.75,71.6875,23.98521,-2.6875,0.003227731
60575.0069,11.4375,70.6875,23.64659,-2.3125,0.003207486
60575.0094,11.625,70.125,23.81173,-2.375,0.003205928
60575.0119,11.625,69.375,24.21334,-2.0,0.003177897
60575.0144,11.625,68.75,24.35755,-2.25,0.003185684
60575.0169,11.5625,68.0625,23.78161,-2.375,0.00321683
60575.0194,11.8125,67.5625,22.32921,-1.9375,0.003205928
60575.0219,11.625,67.0,20.29271,-1.75,0.003198142
60575.0244,11.6875,66.4375,18.33274,-1.9375,0.003182569
60575.0269,11.875,66.0625,17.19748,-1.875,0.003195027
60575.0294,11.75,65.375,17.37067,-1.6875,0.003226173
60575.0319,11.8125,65.25,18.82163,-2.125,0.003213715
60575.0344,11.75,64.625,20.98693,-2.4375,0.00319347
60575.0369,11.875,64.1875,23.002,-2.1875,0.003170111
60575.0394,11.9375,63.875,24.07758,-2.1875,0.003188798
60575.0419,11.6875,63.25,23.84368,-2.125,0.003196585
60575.0444,11.9375,62.6875,22.49765,-2.1875,0.003190355
60575.0469,11.875,62.375,20.6887,-1.4375,0.003179454
60575.0494,11.8125,61.8125,19.19946,-2.0,0.003162324
60575.0519,11.8125,61.375,18.58118,-2.0,0.003142079
60575.0544,11.875,61.0,18.9167,-2.1875,0.003159209
60575.0569,11.9375,60.4375,19.81782,-2.0625,0.00315298
60575.0594,12.0,60.0625,20.64495,-2.1875,0.003156095
60575.0619,11.875,59.6875,20.83175,-1.875,0.003137407
60575.0644,12.0,59.5,20.15221,-2.0,0.00313585
60575.0669,11.875,59.0625,18.80437,-1.8125,0.00313585
60575.0694,11.8125,58.6875,17.2833,-1.6875,0.003134293
60575.0719,12.0,58.125,16.11918,-2.375,0.003145194
60575.0744,11.8125,57.9375,15.61704,-2.1875,0.003134293
60575.0769,12.125,57.6875,15.72577,-1.9375,0.003145194
60575.0794,11.875,57.3125,16.09076,-1.625,0.003128063
60575.0819,11.9375,56.9375,16.25093,-1.8125,0.003129621
60575.0844,12.0625,56.75,15.87352,-2.0,0.003134293
60575.0869,12.125,56.25,14.90736,-2.1875,0.003134293
60575.0894,12.0625,56.25,13.58808,-2.3125,0.003159209
60575.0919,11.875,55.9375,12.30192,-2.6875,0.003137407
60575.0944,12.0625,55.75,11.38694,-2.4375,0.003126506
60575.0969,12.0625,55.4375,10.97376,-2.3125,0.00311872
60575.0994,12.1875,55.1875,10.94036,-2.0,0.003124949
60575.1019,12.125,55.0,10.99492,-1.8125,0.003154538
60575.1044,12.1875,54.8125,10.83609,-1.875,0.00311872
60575.1069,12.0625,54.5,10.3059,-1.625,0.003096917
60575.1094,12.0,54.25,9.460049,-1.8125,0.003138965
60575.1119,12.0625,54.125,8.526033,-2.1875,0.003177897
60575.1144,12.125,53.8125,7.777156,-2.1875,0.00319347
60575.1169,12.0,53.625,7.390206,-1.9375,0.003185684
60575.1194,12.1875,53.4375,7.359417,-1.9375,0.003187241
60575.1219,12.0,53.125,7.508452,-1.5625,0.003185684
60575.1244,12.0,52.9375,7.590083,-1.625,0.003227731
60575.1269,12.25,52.875,7.420112,-1.75,0.003241746
60575.1294,12.0625,52.625,6.975515,-1.6875,0.003221501
60575.1319,12.25,52.375,6.405876,-1.5,0.003229288
60575.1344,12.0625,52.25,5.95354,-1.375,0.003223059
60575.1369,12.25,51.9375,5.8229,-2.0,0.003252647
60575.1394,12.0625,51.875,6.064647,-2.0625,0.003241746
60575.1419,12.25,51.625,6.539368,-1.9375,0.0032106
60575.1444,12.25,51.4375,6.981103,-1.5,0.003205928
60575.1469,12.3125,51.1875,7.133864,-1.8125,0.003190355
60575.1494,12.125,51.0625,6.89483,-2.1875,0.003182569
60575.1519,12.1875,50.8125,6.389357,-2.25,0.003140522
60575.1544,12.1875,50.6875,5.935637,-1.625,0.003100032
60575.1569,12.3125,50.5,5.908776,-1.8125,0.003104704
60575.1594,12.25,50.375,6.56417,-1.4375,0.003098475
60575.1619,12.125,50.1875,7.907197,-1.75,0.003101589
60575.1644,12.0625,49.9375,9.671681,-1.625,0.003072001
60575.1669,12.4375,49.75,11.42217,-1.5625,0.003064214
60575.1694,12.5,49.75,12.73648,-0.9375,0.0030611
60575.1719,12.4375,49.625,13.38502,-1.625,0.003065771
60575.1744,12.0625,49.375,13.42396,-1.5625,0.0030611
60575.1769,12.25,49.0,13.16008,-1.625,0.003056428
60575.1794,12.25,49.125,13.00477,-1.6875,0.003029954
60575.1819,12.375,49.0,13.28595,-1.75,0.003039297
60575.1844,12.3125,48.8125,14.1045,-1.625,0.003047084
60575.1869,12.25,48.625,15.29724,-2.125,0.003050198
60575.1894,12.25,48.5,16.51823,-1.5625,0.003023724
60575.1919,12.1875,48.3125,17.39442,-1.625,0.002998808
60575.1944,12.4375,48.25,17.68197,-2.0,0.002998808
60575.1969,12.25,48.125,17.355,-2.3125,0.003029954
60575.1994,12.3125,48.0,16.5937,-2.1875,0.003026839
60575.2019,12.25,47.6875,15.68758,-1.75,0.002981677
60575.2044,12.3125,47.5,14.90418,-2.125,0.002958318
60575.2069,12.125,47.6875,14.38348,-2.0,0.002916271
60575.2094,12.125,47.5625,14.09948,-1.9375,0.002885125
60575.2119,12.0625,47.375,13.89679,-1.5625,0.002938073
60575.2144,12.3125,47.3125,13.57722,-1.5625,0.003070443
60575.2169,12.1875,47.125,12.99484,-1.75,0.003375674
60575.2194,12.3125,47.1875,12.12013,-2.1875,0.003581238
60575.2219,12.3125,47.1875,11.05105,-1.9375,0.003385018
60575.2244,11.9375,46.9375,9.971543,-2.375,0.00280103
60575.2269,12.0625,46.8125,9.077027,-2.375,0.002326054
60575.2294,12.1875,46.8125,8.496501,-2.25,0.002386788
60575.2319,12.3125,46.75,8.2404,-1.875,0.002497357
60575.2344,12.25,46.8125,8.193708,-1.9375,0.002565878
60575.2369,12.125,46.6875,8.158245,-2.3125,0.002667103
60575.2394,12.0625,46.375,7.930333,-2.0,0.002763655
60575.2419,12.1875,46.3125,7.384654,-2.0,0.002855536
60575.2444,12.1875,46.5,6.527632,-2.0625,0.002891354
60575.2469,12.1875,46.3125,5.495881,-2.25,0.002913156
60575.2494,12.1875,46.1875,4.494802,-2.3125,0.002908484
60575.2519,12.25,46.1875,3.703751,-2.0,0.002920942
60575.2544,12.1875,45.9375,3.190461,-2.3125,0.002958318
60575.2569,12.1875,46.125,2.878524,-2.375,0.002970776
60575.2594,12.0625,46.0,2.589477,-2.375,0.002973891
60575.2619,12.0625,46.0,2.143898,-2.0,0.002953646
60575.2644,12.1875,45.9375,1.473017,-2.0625,0.002942745
60575.2669,12.25,45.75,0.6818333,-2.3125,0.002970776
60575.2694,12.1875,45.625,0.02480323,-2.3125,0.002952089
60575.2719,12.3125,45.6875,-0.2004665,-2.3125,0.002934958
60575.2744,12.1875,45.5625,0.209178,-2.0625,0.0029225
60575.2769,12.25,45.375,1.265523,-2.1875,0.002913156
60575.2794,12.0,45.25,2.788691,-2.625,0.002942745
60575.2819,12.1875,45.3125,4.510356,-2.375,0.00293963
60575.2844,12.1875,45.25,6.231403,-2.625,0.002933401
60575.2869,12.4375,45.25,7.951613,-2.4375,0.002888239
60575.2894,12.3125,45.0,9.898924,-2.125,0.002892911
60575.2919,12.25,45.0,12.43377,-1.9375,0.002916271
60575.2944,12.3125,44.9375,15.87089,-2.1875,0.002905369
60575.2969,12.3125,44.8125,20.30586,-2.1875,0.002908484
60575.2994,12.4375,44.6875,25.53454,-2.0,0.002880453
60575.3019,12.3125,44.5625,31.10937,-1.8125,0.00285865
60575.3044,12.5,44.625,36.50745,-1.9375,0.002875781
60575.3069,12.25,44.5625,41.3297,-1.8125,0.00289914
60575.3094,12.3125,44.5,45.43623,-1.9375,0.002885125
60575.3119,12.25,44.3125,48.95458,-2.0,0.002855536
60575.3144,12.25,44.3125,52.16495,-2.0,0.002861765
60575.3169,12.4375,44.375,55.32608,-1.875,0.002861765
60575.3194,12.5,44.3125,58.53053,-1.75,0.00286488
60575.3219,12.25,44.1875,61.65842,-1.8125,0.002860208
60575.3244,12.25,44.125,64.44372,-2.0625,0.002846192
60575.3269,12.25,44.125,66.61108,-1.8125,0.002874223
60575.3294,12.0625,44.125,68.01082,-2.25,0.002853979
60575.3319,12.25,43.875,68.68655,-2.25,0.002835291
60575.3344,12.25,44.0625,68.85116,-2.0,0.002827504
60575.3369,12.3125,43.875,68.79225,-1.9375,0.002847749
60575.3394,12.25,43.875,68.76108,-1.4375,0.002861765
60575.3419,12.3125,43.625,68.89645,-1.5625,0.002838406
60575.3444,12.375,43.625,69.21141,-2.3125,0.002819718
60575.3469,12.3125,43.5,69.63691,-2.0625,0.002815046
60575.3494,12.1875,43.375,70.08821,-1.5625,0.002825947
60575.3519,12.1875,43.3125,70.51393,-1.625,0.002857093
60575.3544,12.4375,43.3125,70.9113,-1.75,0.002843077
60575.3569,12.375,43.1875,71.30787,-2.1875,0.002830619
60575.3594,12.25,43.25,71.72896,-1.9375,0.00280726
60575.3619,12.125,43.125,72.17264,-1.875,0.002821275
60575.3644,12.3125,43.375,72.60542,-1.6875,0.002866437
60575.3669,12.3125,43.5,72.97729,-2.125,0.002839963
60575.3694,12.3125,43.6875,73.24416,-1.8125,0.002835291
60575.3719,12.375,43.6875,73.3858,-2.1875,0.002846192
60575.3744,12.3125,44.1875,73.41048,-1.875,0.002871109
60575.3769,12.25,44.8125,73.34867,-2.3125,0.002889796
60575.3794,12.5625,45.75,73.23997,-2.1875,0.002886682
60575.3819,12.3125,47.0,73.11932,-2.25,0.002877338
60575.3844,12.375,48.625,73.00704,-2.3125,0.002857093
60575.3869,12.5625,50.375,72.90269,-1.8125,0.002863322
60575.3894,12.4375,51.875,72.78423,-2.0625,0.002872666
60575.3919,12.5,53.125,72.61367,-2.5,0.002875781
60575.3944,12.75,54.5,72.349,-1.9375,0.002900698
60575.3969,12.5,55.5,71.9601,-1.625,0.002908484
60575.3994,12.6875,56.4375,71.44257,-1.6875,0.002938073
60575.4019,12.8125,57.625,70.8225,-1.6875,0.002947417
60575.4044,12.75,58.3125,70.14828,-1.75,0.00295676
60575.4069,12.6875,59.3125,69.47276,-1.75,0.002989464
60575.4094,12.9375,60.125,68.83509,-1.5625,0.003003479
60575.4119,12.75,61.125,68.25127,-1.9375,0.003036183
60575.4144,12.75,62.0,67.71784,-2.1875,0.003089131
60575.4169,12.9375,63.125,67.22447,-2.375,0.003120277
60575.4194,12.9375,64.125,66.76508,-2.1875,0.003159209
60575.4219,12.875,65.0625,66.33829,-2.1875,0.003199699
60575.4244,12.9375,66.3125,65.93713,-1.9375,0.003254205
60575.4269,13.0625,67.625,65.53619,-2.3125,0.003268221
60575.4294,12.9375,68.8125,65.08853,-2.4375,0.003279122
60575.4319,13.125,69.9375,64.54102,-2.8125,0.003316497
60575.4344,13.0625,71.0,63.86366,-2.5625,0.003338299
60575.4369,13.125,72.25,63.07524,-2.4375,0.003344528
60575.4394,13.1875,73.125,62.24615,-2.5625,0.003296252
60575.4419,13.0625,74.125,61.4678,-2.25,0.003277564
60575.4444,13.0,74.875,60.80147,-2.375,0.003271335
60575.4469,13.0625,75.8125,60.23521,-2.1875,0.003276007
60575.4494,13.375,76.75,59.67743,-2.375,0.003277564
60575.4519,13.3125,77.5,58.9991,-2.25,0.003232403
60575.4544,13.1875,78.25,58.10653,-1.9375,0.003224616
60575.4569,13.0,78.8125,57.00362,-1.625,0.0032106
60575.4594,13.25,79.5,55.80158,-1.8125,0.003235517
60575.4619,13.4375,80.3125,54.66042,-2.0625,0.003232403
60575.4644,13.5,80.75,53.68609,-1.875,0.003181012
60575.4669,13.25,81.1875,52.83968,-1.6875,0.003182569
60575.4694,13.1875,81.6875,51.91642,-1.9375,0.003199699
60575.4719,13.5,82.25,50.62035,-2.0625,0.0032106
60575.4744,13.3125,82.6875,48.70857,-1.6875,0.003227731
60575.4769,13.4375,83.0,46.13132,-2.0,0.003198142
60575.4794,13.4375,83.375,43.09045,-1.5625,0.003207486
60575.4819,13.5,83.875,39.97167,-1.5625,0.00321683
60575.4844,13.4375,83.9375,37.17336,-2.1875,0.003198142
60575.4869,13.4375,84.0,34.91469,-2.0,0.003191913
60575.4894,13.375,84.25,33.12446,-1.75,0.003198142
60575.4919,13.625,84.6875,31.47759,-1.5625,0.003213715
60575.4944,13.625,84.6875,29.57131,-1.5,0.003227731
60575.4969,13.5625,84.75,27.15684,-2.1875,0.00325109
60575.4994,13.625,84.75,24.30758,-2.4375,0.003229288
60575.5019,13.4375,84.5,21.43039,-2.3125,0.003218387
60575.5044,13.5,84.8125,19.10596,-2.125,0.003240189
60575.5069,13.625,84.6875,17.83028,-2.25,0.00325109
60575.5094,13.5,84.75,17.78308,-2.625,0.003247976
60575.5119,13.4375,84.5625,18.73776,-2.1875,0.003223059
60575.5144,13.625,84.4375,20.15587,-2.3125,0.003227731
60575.5169,13.625,84.25,21.41734,-2.3125,0.003257319
60575.5194,13.5,84.0,22.07183,-2.0625,0.003257319
60575.5219,13.4375,83.875,21.99062,-2.1875,0.003261991
60575.5244,13.4375,83.625,21.35683,-2.0625,0.00323396
60575.5269,13.5625,83.375,20.51508,-2.1875,0.003243304
60575.5294,13.5,83.0,19.77111,-2.0,0.003293137
60575.5319,13.5,82.625,19.24805,-1.8125,0.003311825
60575.5344,13.5625,82.375,18.86464,-2.1875,0.003300924
60575.5369,13.4375,81.6875,18.42933,-2.0625,0.003258877
60575.5394,13.4375,81.4375,17.78202,-1.875,0.003243304
60575.5419,13.625,81.0,16.89742,-1.6875,0.003282236
60575.5444,13.4375,80.375,15.89612,-1.5625,0.003296252
60575.5469,13.5,79.75,14.96813,-1.5625,0.003304038
60575.5494,13.5625,79.25,14.26417,-1.875,0.003279122
60575.5519,13.4375,78.5,13.82119,-1.875,0.00327445
60575.5544,13.375,77.75,13.56159,-1.5,0.003288465
60575.5569,13.5625,77.1875,13.35662,-1.625,0.003293137
60575.5594,13.375,76.5,13.10623,-1.6875,0.003294695
60575.5619,13.3125,75.75,12.78412,-1.8125,0.003293137
60575.5644,13.4375,75.0,12.4251,-2.3125,0.003305596
60575.5669,13.375,74.3125,12.07333,-2.0,0.003325841
60575.5694,13.375,73.4375,11.73574,-1.75,0.003318054
60575.5719,13.4375,72.625,11.3773,-1.25,0.003297809
60575.5744,13.4375,72.0625,10.96105,-1.375,0.003280679
60575.5769,13.3125,71.1875,10.49923,-1.4375,0.003297809
60575.5794,13.4375,70.4375,10.06925,-1.4375,0.003290023
60575.5819,13.375,69.875,9.769626,-1.6875,0.003272892
60575.5844,13.375,69.25,9.635438,-1.75,0.003258877
60575.5869,13.4375,68.75,9.569943,-1.875,0.00327445
60575.5894,13.5,68.375,9.351552,-1.75,0.00330871
60575.5919,13.4375,68.0,8.736042,-2.0625,0.003305596
60575.5944,13.3125,67.375,7.613153,-1.9375,0.003285351
60575.5969,13.375,66.9375,6.131268,-1.75,0.003255762
60575.5994,13.5625,66.5625,4.704247,-1.625,0.003276007
60575.6019,13.4375,66.0,3.869575,-2.0,0.003313382
60575.6044,13.4375,65.5625,4.047479,-1.75,0.003293137
60575.6069,13.4375,65.0625,5.315236,-1.9375,0.003282236
60575.6094,13.4375,64.625,7.318202,-1.9375,0.003272892
60575.6119,13.5,64.0625,9.379338,-2.125,0.003283794
60575.6144,13.4375,63.6875,10.77224,-2.0,0.003318054
60575.6169,13.4375,63.25,11.03486,-1.4375,0.003299367
60575.6194,13.625,62.75,10.17301,-2.125,0.003300924
60575.6219,13.6875,62.25,8.651096,-2.0625,0.003272892
60575.6244,13.5,61.9375,7.17169,-1.5,0.00327445
60575.6269,13.5,61.4375,6.349082,-1.25,0.003324283
60575.6294,13.4375,61.1875,6.434447,-1.9375,0.003302481
60575.6319,13.5,60.9375,7.223402,-1.9375,0.003286908
60575.6344,13.5,60.5,8.182673,-1.375,0.003269778
60575.6369,13.4375,60.0625,8.725471,-1.1875,0.003272892
60575.6394,13.5,59.625,8.49293,-1.75,0.003297809
60575.6419,13.6875,59.5625,7.506675,-2.1875,0.003318054
60575.6444,13.5,59.125,6.125336,-2.125,0.00330871
60575.6469,13.4375,58.6875,4.841445,-2.0625,0.003299367
60575.6494,13.6875,58.75,4.032139,-2.0,0.00331494
60575.6519,13.6875,58.3125,3.788075,-1.8125,0.003319611
60575.6544,13.625,58.0625,3.901037,-1.75,0.003316497
60575.6569,13.6875,57.6875,4.001237,-2.0,0.003297809
60575.6594,13.75,57.5,3.761472,-2.125,0.003290023
60575.6619,13.6875,57.375,3.060371,-2.1875,0.003310268
60575.6644,13.5,57.1875,2.026197,-2.375,0.00330871
60575.6669,13.6875,56.8125,0.9508958,-2.1875,0.003296252
60575.6694,13.875,56.75,0.1298689,-2.3125,0.003296252
60575.6719,13.875,56.375,-0.2850218,-1.9375,0.003318054
60575.6744,13.625,56.0625,-0.347636,-1.4375,0.003356987
60575.6769,13.8125,55.9375,-0.2721017,-1.875,0.003333627
60575.6794,13.75,55.6875,-0.3136954,-2.125,0.003316497
60575.6819,14.0,55.5625,-0.6422064,-1.6875,0.003330513
60575.6844,13.8125,55.3125,-1.269912,-1.8125,0.003353872
60575.6869,13.875,55.1875,-2.063065,-1.4375,0.003399034
60575.6894,13.75,54.8125,-2.821762,-1.6875,0.003380346
60575.6919,13.8125,54.625,-3.382556,-1.9375,0.00333207
60575.6944,14.0,54.4375,-3.692055,-1.5625,0.003353872
60575.6969,14.0,54.25,-3.822481,-1.75,0.00338969
60575.6994,14.1875,54.0,-3.925179,-1.5625,0.003436409
60575.7019,14.0,53.8125,-4.150921,-1.8125,0.003416164
60575.7044,14.0625,53.625,-4.575277,-1.6875,0.003364773
60575.7069,14.1875,53.4375,-5.161144,-1.625,0.00333207
60575.7094,14.125,53.3125,-5.772942,-2.0,0.003353872
60575.7119,14.0625,52.9375,-6.232944,-1.875,0.003358544
60575.7144,14.1875,52.875,-6.394958,-1.8125,0.003316497
60575.7169,14.25,52.75,-6.205884,-1.5625,0.003283794
60575.7194,14.25,52.625,-5.729111,-1.875,0.003260434
60575.7219,14.3125,52.5,-5.1212,-1.8125,0.003297809
60575.7244,14.0625,52.3125,-4.569389,-1.9375,0.003300924
60575.7269,14.1875,52.0625,-4.216438,-1.8125,0.003261991
60575.7294,14.1875,52.0,-4.102718,-1.9375,0.003265106
60575.7319,14.4375,51.625,-4.151391,-2.0625,0.003244861
60575.7344,14.375,51.6875,-4.205398,-2.4375,0.003268221
60575.7369,14.1875,51.375,-4.099817,-2.0,0.00325109
60575.7394,14.25,51.375,-3.734674,-2.0,0.003240189
60575.7419,14.1875,51.25,-3.119419,-2.25,0.003261991
60575.7444,14.375,51.1875,-2.366849,-1.4375,0.003247976
60575.7469,14.25,50.8125,-1.641296,-1.375,0.003243304
60575.7494,14.1875,50.875,-1.086743,-1.375,0.003235517
60575.7519,14.375,50.5,-0.77109,-1.8125,0.003229288
60575.7544,14.375,50.625,-0.6725566,-1.9375,0.003249533
60575.7569,14.1875,50.25,-0.7104009,-1.8125,0.003244861
60575.7594,14.3125,50.1875,-0.8001595,-2.1875,0.003240189
60575.7619,14.5,50.125,-0.9013016,-1.875,0.003238632
60575.7644,14.4375,50.0,-1.033127,-1.5,0.003238632
60575.7669,14.3125,49.9375,-1.25412,-1.3125,0.003241746
60575.7694,14.3125,49.875,-1.621269,-1.75,0.003232403
60575.7719,14.375,49.6875,-2.155429,-1.625,0.003188798
60575.7744,14.3125,49.6875,-2.831498,-1.5625,0.00313585
60575.7769,14.1875,49.5625,-3.594118,-1.6875,0.003244861
60575.7794,14.0625,49.25,-4.382732,-1.75,0.003420836
60575.7819,14.5,49.3125,-5.145876,-1.25,0.003601483
60575.7844,14.4375,49.25,-5.836605,-1.375,0.003645087
60575.7869,14.3125,49.25,-6.399231,-1.6875,0.003280679
60575.7894,14.25,49.0,-6.768647,-1.625,0.002811931
60575.7919,14.4375,49.0625,-6.897027,-1.5625,0.002665545
60575.7944,14.3125,49.0,-6.800555,-1.8125,0.002748082
60575.7969,14.25,49.0,-6.596929,-2.0,0.002855536
60575.7994,14.4375,48.875,-6.496062,-1.625,0.002916271
60575.8019,14.3125,48.6875,-6.727339,-1.5625,0.003014381
60575.8044,14.5,48.625,-7.426662,-1.9375,0.003101589
60575.8069,14.5,48.75,-8.538928,-2.0625,0.003184126
60575.8094,14.5,48.5625,-9.799349,-1.9375,0.003246418
60575.8119,14.5,48.5,-10.82782,-1.5625,0.00323396
60575.8144,14.3125,48.375,-11.30667,-2.0625,0.003243304
60575.8169,14.4375,48.3125,-11.15835,-2.0625,0.003279122
60575.8194,14.5,48.25,-10.624,-1.875,0.003288465
60575.8219,14.375,48.125,-10.18207,-1.75,0.003294695
60575.8244,14.25,48.0,-10.32602,-1.75,0.003280679
60575.8269,14.5,48.1875,-11.30202,-2.25,0.003299367
60575.8294,14.4375,48.0625,-12.94091,-2.0,0.003294695
60575.8319,14.5625,48.0625,-14.68663,-2.125,0.003280679
60575.8344,14.3125,47.9375,-15.82569,-2.1875,0.003269778
60575.8369,14.5625,47.625,-15.81511,-2.375,0.003279122
60575.8394,14.4375,47.6875,-14.54508,-1.9375,0.003299367
60575.8419,14.4375,47.5625,-12.39523,-2.375,0.003283794
60575.8444,14.375,47.5,-10.04387,-2.3125,0.00327445
60575.8469,14.5,47.5,-8.118805,-1.9375,0.003252647
60575.8494,14.625,47.25,-6.865897,-2.1875,0.003258877
60575.8519,14.5,47.25,-6.010245,-1.875,0.003276007
60575.8544,14.5,47.0625,-4.888351,-2.1875,0.003260434
60575.8569,14.375,47.0,-2.788806,-2.125,0.003238632
60575.8594,14.4375,46.8125,0.6730586,-2.75,0.003223059
60575.8619,14.625,46.875,5.34271,-2.5625,0.003241746
60575.8644,14.5,46.75,10.58967,-2.1875,0.003260434
60575.8669,14.5625,46.625,15.61522,-2.8125,0.003240189
60575.8694,14.5,46.5,19.84383,-2.25,0.003230845
60575.8719,14.6875,46.5,23.19273,-2.4375,0.003182569
60575.8744,14.375,46.5,26.07786,-2.75,0.003173225
60575.8769,14.375,46.375,29.1537,-2.25,0.003204371
60575.8794,14.3125,46.4375,32.92674,-2.6875,0.003209043
60575.8819,14.625,46.375,37.44957,-2.5625,0.003196585
60575.8844,14.5,46.3125,42.25638,-2.4375,0.00313585
60575.8869,14.3125,46.125,46.57467,-2.1875,0.003143636
60575.8894,14.3125,46.125,49.70095,-2.625,0.003173225
60575.8919,14.1875,45.9375,51.3434,-2.125,0.003157652
60575.8944,14.125,45.875,51.75872,-2.0625,0.003154538
60575.8969,14.25,45.8125,51.62033,-1.9375,0.003137407
60575.8994,14.3125,45.6875,51.69378,-2.3125,0.003107819
60575.9019,14.25,45.6875,52.49002,-2.4375,0.003098475
60575.9044,14.25,45.6875,54.06779,-1.875,0.003110933
60575.9069,14.0625,45.3125,56.07243,-1.5,0.00311249
60575.9094,14.0625,45.1875,57.9679,-1.5,0.003090688
60575.9119,14.25,45.25,59.32827,-1.8125,0.003092246
60575.9144,14.375,45.125,60.03828,-2.3125,0.003109376
60575.9169,14.0,45.0,60.30959,-2.0625,0.00309536
60575.9194,14.0,44.875,60.52842,-2.1875,0.003065771
60575.9219,14.1875,45.0,61.03269,-2.0,0.003070443
60575.9244,14.125,45.0,61.93973,-2.1875,0.003106261
60575.9269,14.0,44.9375,63.1126,-1.625,0.003101589
60575.9294,13.875,44.9375,64.26322,-1.8125,0.003075115
60575.9319,13.9375,45.125,65.12058,-1.625,0.003039297
60575.9344,14.0625,45.3125,65.57009,-1.875,0.003042412
60575.9369,14.125,45.375,65.69081,-1.8125,0.003089131
60575.9394,13.9375,45.875,65.68995,-1.625,0.003073558
60575.9419,14.125,46.4375,65.78342,-1.5625,0.003026839
60575.9444,14.0625,47.375,66.09104,-1.6875,0.003023724
60575.9469,14.0625,48.4375,66.59821,-1.8125,0.003072001
60575.9494,13.9375,49.875,67.18935,-1.875,0.00309536
60575.9519,14.125,51.4375,67.7196,-1.75,0.003056428
60575.9544,14.0625,52.75,68.08172,-1.875,0.003034625
60575.9569,14.0,54.25,68.23689,-1.6875,0.003036183
60575.9594,14.125,55.5625,68.20695,-1.3125,0.00307823
60575.9619,14.0625,56.5625,68.04636,-1.4375,0.003110933
60575.9644,14.0625,57.5625,67.81652,-1.5,0.00309536
60575.9669,14.3125,58.5625,67.57376,-1.5625,0.003096917
60575.9694,14.1875,59.625,67.36694,-1.625,0.00309536
60575.9719,13.9375,60.5625,67.23404,-2.0,0.003129621
60575.9744,14.125,61.25,67.19006,-1.9375,0.00317634
60575.9769,14.0625,62.1875,67.21487,-1.8125,0.003184126
60575.9794,13.875,63.1875,67.25359,-1.4375,0.003204371
60575.9819,14.125,64.125,67.23775,-1.6875,0.003227731
60575.9844,14.125,65.1875,67.11887,-1.6875,0.003255762
60575.9869,14.1875,66.4375,66.89537,-1.5625,0.003296252
60575.9894,14.125,67.5625,66.61469,-1.5,0.003313382
60575.9919,13.9375,68.75,66.34637,-1.625,0.003319611
60575.9944,13.9375,69.625,66.14219,-2.0625,0.003342971
60575.9969,13.9375,70.875,66.00925,-2.1875,0.003355429
60575.9994,13.9375,72.0625,65.91492,-1.8125,0.003322726
60576.0019,14.0625,72.9375,65.81934,-2.0625,0.003319611
60576.0044,14.0625,73.9375,65.71021,-2.625,0.003322726
60576.0069,14.0,75.0625,65.61102,-1.75,0.003297809
60576.0094,14.0,76.0,65.55042,-1.9375,0.00331494
60576.0119,13.875,76.5625,65.50999,-1.6875,0.003304038
60576.0144,13.875,77.375,65.38969,-2.125,0.003268221
60576.0169,14.0,78.3125,65.02571,-1.9375,0.003258877
60576.0194,14.0625,79.0,64.26499,-2.125,0.003269778
60576.0219,13.8125,79.8125,63.0593,-1.875,0.003269778
60576.0244,13.9375,80.4375,61.5191,-2.25,0.003224616
60576.0269,14.0,81.1875,59.88122,-2.4375,0.003223059
60576.0294,13.8125,81.5625,58.39047,-2.0625,0.003198142
60576.0319,13.875,82.1875,57.15379,-2.5,0.003213715
60576.0344,13.9375,82.6875,56.05204,-1.3125,0.003240189
60576.0369,13.875,82.9375,54.77338,-1.6875,0.003201257
60576.0394,13.8125,83.4375,52.96825,-2.125,0.003181012
60576.0419,14.0,84.0625,50.44877,-1.9375,0.003205928
60576.0444,13.75,84.25,47.32175,-2.0,0.00323396
60576.0469,13.8125,84.5625,43.96936,-1.5625,0.003224616
60576.0494,13.9375,84.75,40.87195,-1.6875,0.003207486
60576.0519,14.0625,85.25,38.36093,-1.6875,0.0032106
60576.0544,13.75,85.1875,36.43804,-1.9375,0.003202814
60576.0569,13.875,85.1875,34.77184,-1.9375,0.003207486
60576.0594,13.8125,85.375,32.88845,-1.875,0.003229288
60576.0619,13.875,85.625,30.46289,-1.875,0.0032106
60576.0644,13.875,85.5625,27.5528,-1.875,0.003202814
60576.0669,13.875,85.625,24.63815,-1.9375,0.0032106
60576.0694,14.125,85.5625,22.43031,-1.5625,0.00323396
60576.0719,13.8125,85.4375,21.5393,-1.6875,0.003227731
60576.0744,13.6875,85.375,22.16874,-2.5625,0.003205928
60576.0769,13.8125,85.375,23.99828,-2.0,0.003221501
60576.0794,13.6875,85.1875,26.31552,-2.0,0.003230845
60576.0819,13.8125,84.875,28.32707,-1.375,0.003226173
60576.0844,13.9375,84.6875,29.4888,-1.9375,0.003224616
60576.0869,13.75,84.375,29.68874,-2.0625,0.003215272
60576.0894,13.6875,84.1875,29.20453,-2.375,0.003213715
60576.0919,13.625,84.0,28.48196,-2.25,0.003230845
60576.0944,13.8125,83.75,27.87266,-1.6875,0.00323396
60576.0969,13.8125,83.25,27.47745,-1.8125,0.003221501
60576.0994,13.75,82.625,27.16639,-1.9375,0.0032106
60576.1019,13.625,82.4375,26.73569,-2.25,0.003218387
60576.1044,13.6875,82.0,26.0846,-2.0,0.003219944
60576.1069,13.5625,81.4375,25.29406,-2.25,0.003201257
60576.1094,13.6875,80.875,24.56388,-2.0,0.00319347
60576.1119,13.375,80.25,24.06035,-2.3125,0.003202814
60576.1144,13.6875,79.6875,23.7876,-2.25,0.003215272
60576.1169,13.6875,79.0,23.5781,-1.9375,0.003207486
60576.1194,13.5,78.0625,23.21515,-1.875,0.003215272
60576.1219,13.5625,77.75,22.60747,-2.1875,0.003201257
60576.1244,13.4375,77.0,21.8919,-1.875,0.003165439
60576.1269,13.4375,76.0,21.37959,-1.9375,0.003184126
60576.1294,13.5,75.25,21.36008,-1.75,0.003224616
60576.1319,13.375,74.375,21.87746,-1.9375,0.003204371
60576.1344,13.25,73.9375,22.62612,-1.9375,0.003168553
60576.1369,13.5,73.0625,23.05614,-1.8125,0.003170111
60576.1394,13.5,72.25,22.65487,-1.3125,0.003166996
60576.1419,13.4375,71.5625,21.25874,-1.9375,0.003190355
60576.1444,13.375,71.0,19.21179,-1.8125,0.003185684
60576.1469,13.0625,70.3125,17.2592,-1.625,0.003171668
60576.1494,13.25,69.625,16.20661,-2.25,0.003174782
60576.1519,13.3125,69.0625,16.51175,-2.1875,0.003170111
60576.1544,13.4375,68.5625,18.02517,-1.9375,0.003202814
60576.1569,13.4375,68.125,20.02878,-2.125,0.003179454
60576.1594,13.25,67.75,21.56581,-2.0,0.003143636
60576.1619,13.25,67.3125,21.90018,-1.625,0.003165439
60576.1644,13.4375,66.6875,20.87043,-1.5625,0.003184126
60576.1669,13.25,66.3125,18.95634,-1.8125,0.003173225
60576.1694,13.5625,65.8125,17.02698,-1.6875,0.003156095
60576.1719,13.3125,65.25,15.90428,-2.125,0.003160767
60576.1744,13.375,64.75,15.96893,-2.25,0.003173225
60576.1769,13.4375,64.4375,17.0058,-2.1875,0.003170111
60576.1794,13.25,63.75,18.35488,-2.125,0.003146751
60576.1819,13.4375,63.4375,19.27087,-2.3125,0.003138965
60576.1844,13.1875,62.9375,19.29547,-2.0,0.003128063
60576.1869,13.3125,62.625,18.45154,-2.0625,0.003177897
60576.1894,13.375,62.1875,17.17514,-2.1875,0.00317634
60576.1919,13.1875,61.5625,16.04738,-2.0,0.003132735
60576.1944,13.3125,61.1875,15.4842,-1.8125,0.003110933
60576.1969,13.3125,61.0,15.54992,-1.3125,0.003143636
60576.1994,13.3125,60.5,15.9793,-1.5625,0.003166996
60576.2019,13.4375,60.25,16.36984,-1.3125,0.003134293
60576.2044,13.25,59.6875,16.41877,-1.25,0.003117162
60576.2069,13.1875,59.5625,16.06954,-1.625,0.003123392
60576.2094,13.3125,59.3125,15.49835,-1.5625,0.003148308
60576.2119,13.1875,58.9375,14.96852,-1.4375,0.003159209
60576.2144,13.3125,58.5625,14.65365,-1.8125,0.003140522
60576.2169,13.375,58.5,14.53732,-1.75,0.003134293
60576.2194,13.25,58.0625,14.44181,-1.875,0.003098475
60576.2219,13.375,57.8125,14.15675,-1.9375,0.003115605
60576.2244,13.1875,57.4375,13.58154,-2.5625,0.003121834
60576.2269,13.25,57.1875,12.7934,-2.0625,0.003134293
60576.2294,13.25,57.125,12.00269,-1.6875,0.003115605
60576.2319,13.1875,56.6875,11.42653,-1.875,0.003082902
60576.2344,13.25,56.625,11.15942,-1.75,0.003109376
60576.2369,13.125,56.25,11.11782,-1.8125,0.003132735
60576.2394,13.375,56.0625,11.08952,-2.0625,0.003154538
60576.2419,13.3125,55.75,10.85689,-2.1875,0.003166996
60576.2444,13.125,55.5625,10.32088,-1.8125,0.003166996
60576.2469,13.25,55.3125,9.555888,-1.4375,0.003188798
60576.2494,13.4375,55.25,8.766388,-1.375,0.003202814
60576.2519,13.25,54.9375,8.172508,-1.375,0.003177897
60576.2544,13.3125,54.875,7.890113,-1.3125,0.00317634
60576.2569,13.3125,54.625,7.87134,-1.625,0.003170111
60576.2594,13.1875,54.375,7.935425,-1.5625,0.00323396
60576.2619,13.3125,54.3125,7.870342,-1.3125,0.003209043
60576.2644,13.375,53.875,7.549593,-1.5,0.003195027
60576.2669,13.375,53.6875,7.00128,-1.3125,0.003187241
60576.2694,13.25,53.5625,6.394312,-1.5625,0.003163881
60576.2719,13.375,53.3125,5.952826,-1.4375,0.00317634
60576.2744,13.4375,53.1875,5.843301,-1.8125,0.003128063
60576.2769,13.25,53.0,6.093369,-1.4375,0.003092246
60576.2794,13.125,52.75,6.581912,-2.0,0.003067329
60576.2819,13.25,52.5625,7.10306,-1.75,0.003073558
60576.2844,13.1875,52.5625,7.469891,-1.9375,0.003103147
60576.2869,13.3125,52.125,7.605473,-2.0,0.003059542
60576.2894,13.25,52.1875,7.576324,-1.9375,0.003031511
60576.2919,13.1875,51.9375,7.55244,-1.8125,0.003025282
60576.2944,13.125,51.6875,7.712256,-1.75,0.003048641
60576.2969,13.125,51.5625,8.144367,-2.0625,0.0030611
60576.2994,13.3125,51.625,8.796848,-2.375,0.003017495
60576.3019,13.1875,51.375,9.501693,-2.25,0.002994136
60576.3044,13.3125,51.1875,10.06833,-1.875,0.002992578
60576.3069,13.0625,50.9375,10.39661,-1.9375,0.003034625
60576.3094,13.125,50.625,10.54809,-2.25,0.00303774
60576.3119,13.125,50.75,10.73294,-1.9375,0.003005037
60576.3144,13.0,50.5,11.20397,-1.875,0.003008151
60576.3169,13.0,50.3125,12.10906,-1.3125,0.002998808
60576.3194,13.1875,50.125,13.37942,-3.6875,0.00302061
60576.3219,13.0,50.1875,14.71875,-4.25,0.003001922
60576.3244,13.1875,49.9375,15.71735,-3.5625,0.002977005
60576.3269,13.1875,50.0,16.04112,-2.125,0.003006594
60576.3294,13.0,49.8125,15.60302,-2.1875,0.003003479
60576.3319,12.9375,49.6875,14.62551,-2.4375,0.002964547
60576.3344,12.9375,49.375,13.54877,-2.0,0.002874223
60576.3369,12.8125,49.375,12.82103,-2.1875,0.002843077
60576.3394,12.9375,49.3125,12.67512,-2.375,0.002989464
60576.3419,12.875,49.125,13.00813,-2.25,0.003195027
60576.3444,12.9375,49.125,13.43575,-1.75,0.003433294
60576.3469,12.9375,49.0,13.50113,-1.8125,0.003465998
60576.3494,13.0625,48.9375,12.93149,-1.8125,0.00302061
60576.3519,12.9375,48.8125,11.80209,-2.0,0.002473997
60576.3544,12.8125,48.625,10.51024,-1.8125,0.002340069
60576.3569,12.875,48.625,9.563639,-2.25,0.002430393
60576.3594,12.8125,48.5625,9.292824,-2.0625,0.002497357
60576.3619,12.8125,48.5,9.649942,-2.0,0.002595467
60576.3644,12.9375,48.375,10.21217,-1.875,0.002724723
60576.3669,12.875,48.1875,10.4016,-2.25,0.002810374
60576.3694,12.8125,48.375,9.808305,-2.125,0.002883567
60576.3719,12.6875,48.3125,8.438323,-2.125,0.002913156
60576.3744,12.75,48.0625,6.739009,-2.4375,0.002919385
60576.3769,12.8125,48.0,5.372308,-2.3125,0.002911599
60576.3794,12.8125,48.0,4.848483,-1.8125,0.002950531
60576.3819,12.75,48.0,5.221497,-1.875,0.002964547
60576.3844,12.875,47.875,6.023365,-1.8125,0.002913156
60576.3869,12.8125,47.8125,6.491508,-2.25,0.002919385
60576.3894,12.6875,47.75,5.980897,-1.9375,0.002944302
60576.3919,12.625,47.5625,4.342638,-1.5,0.00295676
60576.3944,12.8125,47.5,2.056923,-1.8125,0.002955203
60576.3969,12.75,47.5,0.03366377,-2.0,0.002920942
60576.3994,12.6875,47.3125,-0.8279119,-1.9375,0.002913156
60576.4019,12.75,47.25,-0.09302773,-1.9375,0.002927172
60576.4044,12.8125,47.25,1.984773,-1.875,0.00293963
60576.4069,12.75,47.125,4.596238,-1.6875,0.002938073
60576.4094,12.625,46.75,6.80397,-1.1875,0.002908484
60576.4119,12.75,46.9375,8.043058,-1.6875,0.002910041
60576.4144,12.6875,46.8125,8.430652,-1.875,0.002889796
60576.4169,12.625,46.6875,8.719172,-1.5625,0.002886682
60576.4194,12.75,46.75,9.915644,-1.5,0.002869552
60576.4219,12.75,46.6875,12.76679,-2.0,0.002850864
60576.4244,12.5625,46.5625,17.37849,-1.875,0.002878895
60576.4269,12.75,46.375,23.16591,-1.875,0.002885125
60576.4294,12.6875,46.375,29.1514,-2.0,0.002863322
60576.4319,12.625,46.3125,34.44415,-1.8125,0.002833734
60576.4344,12.6875,46.25,38.64542,-2.0625,0.002813489
60576.4369,12.6875,46.125,41.97132,-1.75,0.002829062
60576.4394,12.6875,46.25,45.04429,-1.875,0.002818161
60576.4419,12.6875,45.875,48.48212,-1.4375,0.002808817
60576.4444,12.625,45.875,52.51863,-1.75,0.002780785
60576.4469,12.75,45.8125,56.86292,-1.9375,0.002776114
60576.4494,12.6875,45.75,60.86115,-1.6875,0.002788572
60576.4519,12.4375,45.625,63.86177,-1.9375,0.002771442
60576.4544,12.625,45.625,65.57178,-1.875,0.002771442
60576.4569,12.4375,45.5,66.20919,-1.4375,0.002752754
60576.4594,12.3125,45.5,66.3757,-1.0625,0.002730952
60576.4619,12.3125,45.0625,66.73113,-1.0625,0.002748082
60576.4644,12.5625,45.3125,67.65498,-1.0625,0.002738738
60576.4669,12.3125,45.25,69.08125,-1.1875,0.002724723
60576.4694,12.3125,45.1875,70.58591,-1.125,0.00268579
60576.4719,12.375,45.125,71.66466,-1.375,0.002679561
60576.4744,12.1875,45.0,72.0358,-2.0,0.002695134
60576.4769,12.1875,44.875,71.80131,-1.75,0.00270915
60576.4794,12.25,44.6875,71.38368,-1.6875,0.00270292
60576.4819,12.5,44.6875,71.2872,-1.6875,0.00266866
60576.4844,12.0625,44.75,71.82472,-2.0,0.002676446
60576.4869,12.3125,44.5625,72.96316,-1.8125,0.002688905
60576.4894,12.3125,44.75,74.36491,-1.875,0.002699806
60576.4919,12.0625,44.5,75.5895,-1.4375,0.002682676
60576.4944,12.0625,44.5625,76.33353,-1.75,0.002670217
60576.4969,12.375,44.75,76.57475,-2.0625,0.002701363
60576.4994,12.375,45.125,76.55016,-2.0,0.002701363
60576.5019,12.1875,45.1875,76.59491,-2.0625,0.002701363
60576.5044,12.3125,45.625,76.94422,-1.9375,0.002692019
60576.5069,12.3125,46.1875,77.61053,-1.9375,0.00268579
60576.5094,12.1875,47.0,78.39794,-2.0625,0.002729395
60576.5119,12.0625,48.0625,79.03278,-1.9375,0.002716936
60576.5144,12.3125,49.375,79.32545,-1.625,0.002710707
60576.5169,12.375,50.625,79.26897,-2.125,0.002706035
60576.5194,12.25,51.9375,79.02425,-2.1875,0.002723165
60576.5219,12.4375,53.1875,78.81176,-1.875,0.002760541
60576.5244,12.3125,54.5,78.78024,-1.8125,0.002746525
60576.5269,12.0,55.5625,78.93008,-1.1875,0.002752754
60576.5294,12.125,56.5625,79.12691,-1.3125,0.002774556
60576.5319,12.375,57.625,79.19137,-1.375,0.002782343
60576.5344,12.375,58.5,79.00409,-1.5625,0.002832176
60576.5369,12.3125,59.375,78.56556,-1.5625,0.002860208
60576.5394,12.375,60.375,77.98369,-1.875,0.002847749
60576.5419,12.5,61.3125,77.40466,-1.4375,0.00286488
60576.5444,12.5625,62.1875,76.93441,-1.1875,0.002936516
60576.5469,12.3125,63.0625,76.59659,-1.8125,0.003005037
60576.5494,12.5625,64.1875,76.3442,-1.625,0.003008151
60576.5519,12.4375,65.25,76.10791,-2.125,0.003031511
60576.5544,12.5,66.3125,75.84467,-1.875,0.00307823
60576.5569,12.4375,67.4375,75.55629,-2.1875,0.003101589
60576.5594,12.4375,68.625,75.27219,-1.9375,0.003146751
60576.5619,12.625,69.625,75.01572,-1.9375,0.003131178
60576.5644,12.5625,70.625,74.78101,-2.0625,0.003115605
60576.5669,12.4375,71.5625,74.53742,-2.1875,0.003089131
60576.5694,12.3125,72.625,74.25618,-1.8125,0.003101589
60576.5719,12.5625,73.6875,73.93587,-1.6875,0.003076673
60576.5744,12.5,74.75,73.60498,-2.1875,0.003053313
60576.5769,12.4375,75.4375,73.29687,-1.6875,0.003048641
60576.5794,12.3125,76.125,73.01464,-1.875,0.003014381
60576.5819,12.5,77.0,72.71322,-2.125,0.003011266
60576.5844,12.5,77.8125,72.31629,-2.125,0.00299725
60576.5869,12.5,78.4375,71.76156,-1.6875,0.002987906
60576.5894,12.375,79.3125,71.04504,-1.8125,0.002991021
60576.5919,12.4375,80.0,70.23066,-1.6875,0.002969219
60576.5944,12.4375,80.6875,69.41012,-1.5625,0.002973891
60576.5969,12.4375,81.0,68.62994,-1.6875,0.002967662
60576.5994,12.4375,81.5,67.82921,-1.5625,0.002958318
60576.6019,12.8125,82.0625,66.83284,-2.0,0.002977005
60576.6044,12.625,82.5,65.41808,-1.6875,0.002991021
60576.6069,12.375,82.875,63.42933,-1.8125,0.002986349
60576.6094,12.4375,83.3125,60.88206,-1.375,0.002977005
60576.6119,12.5625,83.625,57.99391,-1.5625,0.002955203
60576.6144,12.4375,83.875,55.1125,-1.8125,0.002967662
60576.6169,12.3125,83.875,52.56538,-1.9375,0.00299725
60576.6194,12.375,84.1875,50.504,-2.3125,0.00299725
60576.6219,12.5,84.375,48.82576,-2.0625,0.002981677
60576.6244,12.3125,84.375,47.22548,-2.0,0.002967662
60576.6269,12.4375,84.625,45.36303,-2.0625,0.00298012
60576.6294,12.625,84.625,43.0703,-2.0625,0.002991021
60576.6319,12.5,84.6875,40.49142,-1.9375,0.003005037
60576.6344,12.375,84.5,38.0743,-2.3125,0.002967662
60576.6369,12.4375,84.5,36.40064,-2.625,0.002955203
60576.6394,12.5625,84.5,35.92353,-2.25,0.002977005
60576.6419,12.4375,84.375,36.73415,-2.0,0.002994136
60576.6444,12.375,84.1875,38.47506,-2.0625,0.003009709
60576.6469,12.3125,84.125,40.45319,-2.125,0.002977005
60576.6494,12.375,83.75,41.91162,-2.0625,0.002991021
60576.6519,12.3125,83.75,42.33889,-2.0,0.00299725
60576.6544,12.375,83.4375,41.6721,-1.9375,0.003011266
60576.6569,12.1875,83.0,40.29541,-2.0,0.003009709
60576.6594,12.5,82.8125,38.83289,-2.0625,0.002986349
60576.6619,12.5,82.4375,37.83532,-2.25,0.002995693
60576.6644,12.4375,82.0625,37.51452,-2.25,0.002994136
60576.6669,12.3125,81.4375,37.65721,-1.4375,0.002983235
60576.6694,12.375,81.0625,37.76159,-1.5,0.00296299
60576.6719,12.4375,80.6875,37.32626,-1.5,0.002961432
60576.6744,12.25,80.0625,36.1416,-1.75,0.002995693
60576.6769,12.3125,79.4375,34.42843,-1.875,0.002994136
60576.6794,12.3125,78.75,32.74513,-1.875,0.00298012
60576.6819,12.4375,78.3125,31.70427,-1.875,0.00298012
60576.6844,12.1875,77.5625,31.6416,-1.6875,0.002973891
60576.6869,12.25,76.8125,32.41265,-1.9375,0.002981677
60576.6894,12.1875,76.1875,33.43278,-1.9375,0.002992578
60576.6919,12.1875,75.5625,33.9523,-1.9375,0.002987906
60576.6944,12.1875,74.6875,33.43478,-1.875,0.002987906
60576.6969,12.0625,73.9375,31.84638,-1.6875,0.00298012
60576.6994,12.1875,73.125,29.70147,-1.6875,0.002984792
60576.7019,12.1875,72.375,27.83204,-1.5,0.002995693
60576.7044,12.0625,71.6875,26.98889,-1.8125,0.003000365
60576.7069,12.0625,70.9375,27.47126,-2.1875,0.002953646
60576.7094,12.25,70.4375,28.97185,-2.1875,0.002967662
60576.7119,12.25,69.8125,30.71606,-1.8125,0.00299725
60576.7144,12.1875,69.1875,31.82679,-2.1875,0.002998808
60576.7169,12.25,68.625,31.7329,-2.125,0.003005037
60576.7194,12.125,68.0,30.42007,-1.375,0.00298012
60576.7219,12.1875,67.4375,28.40638,-1.625,0.002970776
60576.7244,12.125,67.1875,26.46664,-2.0,0.002984792
60576.7269,12.0,66.875,25.25455,-1.8125,0.00299725
60576.7294,12.0625,66.3125,25.01505,-1.75,0.003001922
60576.7319,12.25,65.75,25.52279,-2.0,0.002966104
60576.7344,12.375,65.3125,26.25789,-1.75,0.002950531
60576.7369,12.1875,64.8125,26.70782,-1.8125,0.002983235
60576.7394,12.1875,64.3125,26.62638,-1.9375,0.003005037
60576.7419,12.25,63.9375,26.11979,-1.6875,0.002998808
60576.7444,12.1875,63.5,25.53083,-1.875,0.002958318
60576.7469,12.125,62.875,25.20486,-1.5625,0.002977005
60576.7494,12.3125,62.5625,25.27937,-1.3125,0.002994136
60576.7519,12.3125,62.1875,25.61373,-1.6875,0.002977005
60576.7544,12.1875,61.75,25.88857,-1.75,0.002977005
60576.7569,12.25,61.1875,25.80529,-1.8125,0.002959875
60576.7594,12.3125,60.875,25.26399,-1.75,0.002998808
60576.7619,12.1875,60.75,24.41749,-1.6875,0.003003479
60576.7644,12.1875,60.125,23.57634,-2.125,0.002959875
60576.7669,12.3125,59.75,23.02714,-2.0625,0.002969219
60576.7694,12.375,59.5625,22.87137,-2.25,0.002972333
60576.7719,12.1875,59.125,22.97643,-2.125,0.002989464
60576.7744,12.25,58.875,23.06068,-2.1875,0.002986349
60576.7769,12.25,58.8125,22.85671,-2.125,0.002992578
60576.7794,12.1875,58.25,22.25681,-1.5625,0.002942745
60576.7819,12.4375,58.125,21.36009,-2.0625,0.002947417
60576.7844,12.3125,57.9375,20.40262,-2.8125,0.00299725
60576.7869,12.3125,57.6875,19.61876,-2.4375,0.002984792
60576.7894,12.1875,57.25,19.1174,-2.0625,0.002948974
60576.7919,12.4375,57.0,18.84102,-2.1875,0.002928729
60576.7944,12.3125,56.9375,18.62181,-2.125,0.002952089
60576.7969,12.25,56.625,18.29213,-1.9375,0.002994136
60576.7994,12.1875,56.4375,17.77997,-2.4375,0.002991021
60576.8019,12.1875,56.0625,17.13646,-2.3125,0.002983235
60576.8044,12.5,55.6875,16.48823,-2.3125,0.002975448
60576.8069,12.3125,55.75,15.95317,-2.4375,0.003011266
60576.8094,12.3125,55.4375,15.57517,-2.6875,0.003068886
60576.8119,12.25,55.25,15.31498,-2.0,0.003067329
60576.8144,12.375,54.9375,15.09437,-2.125,0.0030611
60576.8169,12.5,54.75,14.85672,-2.0,0.003050198
60576.8194,12.4375,54.5625,14.60099,-2.0625,0.003051756
60576.8219,12.25,54.375,14.36894,-2.375,0.003084459
60576.8244,12.25,54.125,14.2005,-2.5625,0.003084459
60576.8269,12.1875,53.9375,14.09465,-2.4375,0.003089131
60576.8294,12.375,53.875,14.00995,-2.5625,0.003064214
60576.8319,12.25,53.625,13.9051,-2.0625,0.003048641
60576.8344,12.375,53.375,13.78801,-2.1875,0.00303774
60576.8369,12.3125,53.1875,13.73433,-2.4375,0.003025282
60576.8394,12.1875,52.9375,13.84972,-2.6875,0.003009709
60576.8419,12.1875,52.8125,14.19528,-2.625,0.002969219
60576.8444,12.1875,52.5,14.72331,-2.0,0.002961432
60576.8469,12.3125,52.5,15.27459,-2.1875,0.002972333
60576.8494,12.5,52.375,15.65478,-2.0625,0.002955203
60576.8519,12.3125,52.25,15.75681,-2.1875,0.002928729
60576.8544,12.25,51.875,15.65707,-1.875,0.002927172
60576.8569,12.1875,51.6875,15.61857,-1.625,0.002944302
60576.8594,12.4375,51.75,15.97972,-2.0625,0.002903812
60576.8619,12.3125,51.5,16.97578,-2.0,0.002885125
60576.8644,12.25,51.4375,18.58512,-1.6875,0.002880453
60576.8669,12.1875,51.125,20.49321,-1.6875,0.002891354
60576.8694,12.1875,50.875,22.20843,-2.5,0.002928729
60576.8719,12.25,50.875,23.2837,-2.125,0.002902255
60576.8744,12.1875,50.6875,23.5324,-2.0,0.002867994
60576.8769,12.125,50.625,23.12347,-2.25,0.002869552
60576.8794,11.9375,50.0625,22.49976,-1.8125,0.002902255
60576.8819,12.3125,50.1875,22.1559,-1.8125,0.002916271
60576.8844,12.25,50.25,22.38888,-1.5,0.002896026
60576.8869,12.1875,50.125,23.15228,-1.375,0.002871109
60576.8894,12.1875,49.875,24.09044,-1.3125,0.002861765
60576.8919,12.1875,49.75,24.73285,-2.0,0.002906927
60576.8944,11.9375,49.5625,24.74414,-2.1875,0.00288201
60576.8969,11.9375,49.5,24.09369,-1.625,0.002782343
60576.8994,12.125,49.4375,23.05572,-1.625,0.002740296
60576.9019,12.0,49.3125,22.04556,-1.625,0.002791687
60576.9044,12.0625,49.0,21.38766,-2.125,0.003000365
60576.9069,11.8125,49.0625,21.14712,-1.875,0.00333207
60576.9094,11.8125,49.0625,21.11712,-2.0,0.003523618
60576.9119,12.125,48.9375,20.96361,-2.0625,0.003265106
60576.9144,11.9375,48.75,20.4389,-1.8125,0.00266866
60576.9169,12.0625,48.5625,19.53828,-2.0625,0.002237288
60576.9194,12.1875,48.625,18.50438,-1.5625,0.00227622
60576.9219,12.125,48.4375,17.6785,-1.9375,0.002375887
60576.9244,11.75,48.25,17.28701,-1.875,0.002483341
60576.9269,11.8125,48.3125,17.29067,-1.6875,0.002584566
60576.9294,12.0625,48.625,17.39199,-1.6875,0.002692019
60576.9319,12.125,48.5625,17.20111,-1.75,0.002727837
60576.9344,11.875,48.4375,16.46718,-1.75,0.002780785
60576.9369,11.875,48.1875,15.23933,-1.875,0.00282439
60576.9394,11.9375,48.125,13.85696,-2.0625,0.00282439
60576.9419,11.8125,47.9375,12.76572,-1.75,0.002843077
60576.9444,11.8125,47.6875,12.25816,-1.375,0.002839963
60576.9469,12.0625,47.5625,12.28763,-1.5,0.002836848
60576.9494,11.9375,47.5625,12.4697,-1.8125,0.00286488
60576.9519,11.875,47.5,12.28503,-1.5625,0.002880453
60576.9544,11.75,47.5,11.37991,-2.1875,0.002880453
60576.9569,11.9375,47.5,9.800883,-2.125,0.002836848
60576.9594,11.8125,47.5,8.025997,-1.8125,0.002835291
60576.9619,11.75,47.3125,6.761292,-1.875,0.002827504
60576.9644,11.875,47.1875,6.599744,-1.8125,0.002855536
60576.9669,11.875,47.0625,7.718603,-1.625,0.002860208
60576.9694,11.8125,47.0625,9.779449,-1.75,0.002822833
60576.9719,11.6875,47.0,12.09266,-2.1875,0.002790129
60576.9744,11.625,46.875,13.96976,-2.1875,0.002785457
60576.9769,11.6875,46.625,15.08631,-2.0,0.002818161
60576.9794,11.6875,46.6875,15.66779,-1.875,0.002830619
60576.9819,11.8125,46.6875,16.39984,-2.0,0.0027839
60576.9844,11.5625,46.5625,18.1046,-1.625,0.002772999
60576.9869,11.8125,46.5,21.34334,-2.125,0.002769884
60576.9894,11.6875,46.625,26.14228,-1.875,0.002779228
60576.9919,11.75,46.3125,31.97339,-2.0625,0.002790129
60576.9944,11.6875,46.1875,37.99237,-2.0625,0.002740296
60576.9969,11.875,46.1875,43.40879,-2.25,0.002738738
60576.9994,11.75,46.0625,47.80461,-2.0625,0.002771442
60577.0019,11.6875,45.8125,51.25278,-2.1875,0.002769884
60577.0044,11.875,45.875,54.19516,-2.125,0.002763655
60577.0069,11.9375,45.9375,57.15833,-1.4375,0.002735624
60577.0094,11.5625,45.6875,60.46139,-1.875,0.002757426
60577.0119,11.75,45.6875,64.05998,-1.6875,0.002748082
60577.0144,11.6875,45.8125,67.58816,-1.875,0.002735624
60577.0169,11.5625,45.5625,70.5594,-1.625,0.002723165
60577.0194,11.6875,45.625,72.60942,-2.1875,0.002713822
60577.0219,11.5,45.625,73.65754,-1.8125,0.00274341
60577.0244,11.5,45.4375,73.91886,-1.4375,0.002741853
60577.0269,11.5625,45.375,73.78156,-2.0,0.002721608
60577.0294,11.5,45.125,73.62798,-1.6875,0.002706035
60577.0319,11.5625,45.125,73.69372,-1.6875,0.002713822
60577.0344,11.4375,44.8125,74.02386,-1.25,0.002740296
60577.0369,11.5625,44.8125,74.52628,-1.4375,0.002723165
60577.0394,11.4375,44.9375,75.07113,-1.9375,0.002701363
60577.0419,11.625,44.75,75.57182,-1.5,0.002701363
60577.0444,11.5,44.5,76.01131,-1.75,0.002721608
60577.0469,11.625,44.625,76.41449,-1.9375,0.002740296
60577.0494,11.5,44.5,76.80126,-2.1875,0.002737181
60577.0519,11.5,44.4375,77.16038,-2.25,0.002735624
60577.0544,11.625,44.625,77.45993,-2.0,0.00270292
60577.0569,11.4375,44.75,77.68301,-1.9375,0.00270915
60577.0594,11.4375,44.5,77.8583,-2.4375,0.002730952
60577.0619,11.625,44.9375,78.05831,-2.1875,0.00274341
60577.0644,11.4375,45.0625,78.36235,-2.25,0.002751197
60577.0669,11.4375,45.4375,78.80687,-1.625,0.00270915
60577.0694,11.5625,45.75,79.3557,-2.0625,0.002715379
60577.0719,11.5625,46.25,79.91095,-1.9375,0.002755869
60577.0744,11.5,46.9375,80.36146,-2.0,0.002755869
60577.0769,11.625,48.0625,80.64171,-2.25,0.002755869
60577.0794,11.5625,49.25,80.76592,-2.0,0.002737181
60577.0819,11.5625,50.5,80.81705,-1.8125,0.002746525
60577.0844,11.625,51.875,80.89735,-2.125,0.002758983
60577.0869,11.75,53.0625,81.06842,-2.0625,0.002774556
60577.0894,11.625,54.125,81.31505,-1.8125,0.002785457
60577.0919,11.8125,55.3125,81.55338,-1.75,0.0027839
60577.0944,11.8125,56.4375,81.67663,-1.75,0.002821275
60577.0969,11.625,57.1875,81.61085,-1.3125,0.002855536
60577.0994,11.9375,58.1875,81.35167,-1.6875,0.002861765
60577.1019,11.875,59.1875,80.96203,-2.3125,0.002883567
60577.1044,11.8125,60.1875,80.53569,-2.375,0.002919385
60577.1069,11.625,61.0,80.15021,-2.125,0.002992578
60577.1094,11.6875,62.0,79.83319,-1.8125,0.003001922
60577.1119,11.6875,63.0625,79.55857,-1.5625,0.003022167
60577.1144,11.9375,64.1875,79.27003,-1.5,0.00305487
60577.1169,11.9375,65.125,78.91415,-1.5,0.003110933
60577.1194,11.75,66.1875,78.46468,-1.6875,0.003187241
60577.1219,11.9375,67.125,77.92721,-1.625,0.003163881
60577.1244,11.875,68.375,77.32774,-1.625,0.00315298
60577.1269,12.0,69.5625,76.69715,-1.8125,0.003173225
60577.1294,11.75,70.5,76.06127,-1.8125,0.003156095
60577.1319,11.875,71.4375,75.44041,-1.6875,0.003166996
60577.1344,12.0,72.5625,74.8535,-1.3125,0.003140522
60577.1369,12.125,73.5625,74.31658,-1.5625,0.003092246
60577.1394,11.9375,74.5,73.8352,-2.0625,0.003067329
60577.1419,11.8125,75.3125,73.39359,-2.0,0.003089131
60577.1444,11.875,76.125,72.95172,-2.25,0.003114048
60577.1469,11.9375,77.0,72.45803,-1.9375,0.003079787
60577.1494,11.8125,77.8125,71.87452,-1.6875,0.00305487
60577.1519,11.8125,78.4375,71.20048,-1.8125,0.003036183
60577.1544,12.125,79.1875,70.47767,-1.875,0.003034625
60577.1569,11.9375,79.9375,69.76754,-2.0,0.003047084
60577.1594,12.0625,80.375,69.10683,-1.9375,0.003029954
60577.1619,11.875,81.0,68.46433,-1.5625,0.003033068
60577.1644,11.875,81.4375,67.72617,-1.6875,0.003014381
60577.1669,11.875,81.9375,66.72626,-1.5625,0.003051756
60577.1694,11.875,82.5625,65.31539,-1.625,0.003040855
60577.1719,11.9375,82.75,63.43985,-1.8125,0.003014381
60577.1744,11.75,83.1875,61.1889,-1.75,0.003039297
60577.1769,11.8125,83.5,58.78055,-1.75,0.003050198
60577.1794,12.0,83.75,56.4819,-1.75,0.003057985
60577.1819,11.9375,84.0,54.49435,-1.625,0.003012823
60577.1844,11.9375,84.1875,52.85625,-1.8125,0.002998808
60577.1869,11.75,84.125,51.41434,-1.8125,0.003050198
60577.1894,11.9375,84.1875,49.88877,-1.875,0.003051756
60577.1919,12.0625,84.5,48.01336,-1.1875,0.003043969
60577.1944,11.875,84.6875,45.69315,-0.8125,0.003047084
60577.1969,12.0,84.4375,43.10406,-1.0,0.003029954
60577.1994,12.0,84.375,40.6763,-1.1875,0.003042412
60577.2019,12.0,84.4375,38.95051,-1.4375,0.003048641
60577.2044,12.0,84.3125,38.35496,-1.25,0.0030611
60577.2069,11.8125,84.0625,38.99611,-1.4375,0.003042412
60577.2094,11.75,84.1875,40.5616,-1.5,0.003023724
60577.2119,11.875,84.0,42.39497,-1.75,0.003014381
60577.2144,11.875,83.75,43.72828,-1.875,0.003072001
60577.2169,11.8125,83.375,43.983,-1.6875,0.003067329
60577.2194,11.75,83.25,43.00914,-1.875,0.003034625
60577.2219,11.8125,82.875,41.14871,-1.9375,0.003009709
60577.2244,11.9375,82.75,39.08224,-1.1875,0.003026839
60577.2269,11.9375,82.375,37.51682,-1.25,0.003089131
60577.2294,11.75,82.0,36.85506,-1.6875,0.00307823
60577.2319,11.875,81.4375,37.00302,-1.625,0.003036183
60577.2344,11.8125,81.0625,37.41745,-1.375,0.003045527
60577.2369,11.875,80.3125,37.38046,-1.375,0.003053313
60577.2394,11.5625,79.9375,36.37516,-1.4375,0.003062657
60577.2419,11.8125,79.375,34.37678,-1.625,0.003072001
60577.2444,11.875,78.625,31.90577,-1.5625,0.003070443
60577.2469,11.9375,78.125,29.80159,-1.4375,0.003067329
60577.2494,11.8125,77.5,28.81662,-1.25,0.003062657
60577.2519,11.75,76.6875,29.22677,-1.5,0.003070443
60577.2544,12.0,76.0,30.65891,-1.375,0.003064214
60577.2569,11.6875,75.4375,32.23558,-1.625,0.003040855
60577.2594,11.75,74.5625,32.97921,-1.625,0.003064214
60577.2619,11.8125,73.9375,32.28489,-1.5,0.003087574
60577.2644,11.8125,73.1875,30.22819,-1.4375,0.003076673
60577.2669,11.625,72.4375,27.54786,-1.5625,0.003070443
60577.2694,11.75,71.5625,25.30493,-1.75,0.003067329
60577.2719,11.875,71.0625,24.38043,-1.5625,0.003073558
60577.2744,11.8125,70.25,25.05665,-2.0,0.00309536
60577.2769,11.6875,69.625,26.887,-1.6875,0.003089131
60577.2794,11.875,69.125,28.91563,-2.0,0.003065771
60577.2819,11.875,68.5625,30.1337,-1.6875,0.003068886
60577.2844,11.875,68.125,29.94491,-1.8125,0.003065771
60577.2869,11.8125,67.5,28.41451,-1.625,0.003057985
60577.2894,11.875,67.1875,26.19189,-2.0,0.003068886
60577.2919,11.875,66.6875,24.16333,-2.0,0.003039297
60577.2944,11.875,66.3125,23.0223,-1.6875,0.003056428
60577.2969,11.6875,65.75,22.97372,-1.4375,0.003076673
60577.2994,11.8125,65.25,23.70607,-1.4375,0.003086016
60577.3019,11.875,64.8125,24.61841,-2.0,0.003072001
60577.3044,12.0,64.375,25.16168,-1.6875,0.003034625
60577.3069,11.8125,63.8125,25.10759,-1.875,0.003047084
60577.3094,11.8125,63.4375,24.61306,-1.25,0.003033068
60577.3119,11.9375,62.9375,24.06983,-1.625,0.003047084
60577.3144,12.0,62.5625,23.84456,-1.4375,0.003068886
60577.3169,11.875,61.875,24.06311,-1.5625,0.003042412
60577.3194,11.9375,61.75,24.55466,-1.875,0.003029954
60577.3219,12.125,61.375,24.97106,-1.8125,0.003047084
60577.3244,11.875,60.9375,24.99834,-1.5625,0.003059542
60577.3269,11.875,60.5625,24.53255,-1.3125,0.003051756
60577.3294,12.0625,60.25,23.72309,-1.0,0.003025282
60577.3319,12.0,60.125,22.86968,-1.125,0.003050198
60577.3344,11.875,59.6875,22.24343,-1.0625,0.003070443
60577.3369,12.0625,59.125,21.93968,-1.25,0.00305487
60577.3394,11.9375,59.0625,21.8431,-1.6875,0.003029954
60577.3419,12.0,58.625,21.71573,-1.3125,0.003023724
60577.3444,11.9375,58.5,21.34591,-1.4375,0.003047084
60577.3469,12.0625,58.1875,20.66814,-1.625,0.003026839
60577.3494,12.0625,58.125,19.78768,-1.8125,0.003039297
60577.3519,11.8125,57.5625,18.90508,-1.375,0.003036183
60577.3544,11.8125,57.625,18.19489,-1.75,0.003028396
60577.3569,11.75,57.3125,17.7133,-1.25,0.003059542
60577.3594,11.9375,56.875,17.38592,-0.625,0.003043969
60577.3619,11.9375,56.75,17.07378,-0.9375,0.003026839
60577.3644,12.0,56.5625,16.66882,-1.6875,0.003011266
60577.3669,11.875,56.375,16.15763,-1.4375,0.003042412
60577.3694,12.0625,56.0,15.618,-1.1875,0.003090688
60577.3719,12.125,55.875,15.15775,-1.1875,0.003082902
60577.3744,11.8125,55.5,14.84128,-1.1875,0.00307823
60577.3769,11.875,55.25,14.65254,-1.3125,0.003081344
60577.3794,11.875,55.1875,14.51566,-1.4375,0.003121834
60577.3819,12.0,54.8125,14.35443,-1.875,0.003151423
60577.3844,11.9375,54.6875,14.14685,-1.6875,0.003132735
60577.3869,12.0,54.5625,13.93646,-1.5625,0.003126506
60577.3894,11.9375,54.3125,13.79356,-2.0,0.003126506
60577.3919,12.0,54.25,13.75491,-2.0625,0.003151423
60577.3944,11.9375,53.875,13.78812,-1.8125,0.003181012
60577.3969,11.8125,53.6875,13.80832,-1.625,0.003166996
60577.3994,11.9375,53.4375,13.73901,-1.625,0.003140522
60577.4019,12.0,53.5,13.57775,-1.75,0.003101589
60577.4044,12.0,53.375,13.41631,-1.875,0.003086016
60577.4069,11.8125,53.0625,13.39555,-1.8125,0.003073558
60577.4094,12.0625,53.0,13.61675,-1.625,0.003076673
60577.4119,12.0,52.75,14.06399,-1.25,0.003051756
60577.4144,12.0625,52.375,14.59337,-1.25,0.003009709
60577.4169,11.9375,52.25,15.00737,-1.4375,0.003011266
60577.4194,12.1875,52.1875,15.17993,-1.4375,0.00302061
60577.4219,12.0,52.0625,15.1586,-1.625,0.003011266
60577.4244,11.875,51.8125,15.17474,-1.375,0.002991021
60577.4269,12.125,51.5,15.54045,-1.1875,0.002973891
60577.4294,12.0625,51.625,16.47861,-1.75,0.002984792
60577.4319,12.0625,51.4375,17.97365,-1.875,0.002975448
60577.4344,12.0,51.0,19.73425,-1.5,0.002947417
60577.4369,11.9375,51.125,21.30164,-2.1875,0.002964547
60577.4394,11.9375,50.9375,22.2578,-1.875,0.002969219
60577.4419,11.9375,50.6875,22.43078,-1.25,0.00298012
60577.4444,11.9375,50.75,21.98583,-1.625,0.002959875
60577.4469,11.9375,50.5,21.34736,-1.5625,0.00296299
60577.4494,11.9375,50.3125,20.98709,-1.6875,0.002973891
60577.4519,11.875,50.1875,21.18517,-2.125,0.002964547
60577.4544,12.0,50.0625,21.88912,-1.75,0.002991021
60577.4569,12.0625,50.0,22.74527,-1.6875,0.002970776
60577.4594,11.875,49.9375,23.28763,-1.1875,0.002947417
60577.4619,11.6875,49.8125,23.18316,-1.3125,0.002930286
60577.4644,11.8125,49.625,22.40168,-1.9375,0.00289914
60577.4669,12.0,49.4375,21.22267,-1.8125,0.00285865
60577.4694,11.9375,49.375,20.07812,-1.6875,0.002861765
60577.4719,11.75,49.3125,19.31938,-1.25,0.003026839
60577.4744,11.6875,49.3125,19.03787,-1.6875,0.003310268
60577.4769,11.8125,49.125,19.03576,-1.9375,0.003593696
60577.4794,11.8125,49.0,18.95811,-1.3125,0.003498701
60577.4819,12.0,49.0,18.50921,-1.25,0.002900698
60577.4844,11.8125,48.9375,17.62846,-1.125,0.002324496
60577.4869,11.6875,48.6875,16.52348,-0.9375,0.002319825
60577.4894,11.5,48.6875,15.54366,-1.3125,0.002456867
60577.4919,11.5625,48.5625,14.96782,-1.3125,0.002559649
60577.4944,11.75,48.5625,14.82958,-1.625,0.002648415
60577.4969,11.75,48.4375,14.88706,-1.375,0.002746525
60577.4994,11.8125,48.5,14.75698,-0.875,0.002793244
60577.5019,11.5625,48.375,14.13955,-0.75,0.002857093
60577.5044,11.8125,48.125,13.00459,-1.25,0.002889796
60577.5069,11.5,48.125,11.62659,-1.375,0.002894468
60577.5094,11.625,48.0625,10.44127,-1.4375,0.002928729
60577.5119,11.5625,47.9375,9.797791,-1.9375,0.002931844
60577.5144,11.5625,48.0,9.74642,-1.9375,0.002927172
60577.5169,11.75,48.0,9.987605,-1.1875,0.002920942
60577.5194,11.5,47.8125,10.02246,-1.0,0.002906927
60577.5219,11.5625,47.625,9.431973,-1.4375,0.002928729
60577.5244,11.5625,47.625,8.136281,-1.5625,0.002931844
60577.5269,11.5625,47.75,6.485626,-1.375,0.002931844
60577.5294,11.625,47.5,5.12322,-1.5625,0.002920942
60577.5319,11.75,47.1875,4.68068,-1.5625,0.002883567
60577.5344,11.8125,47.3125,5.460538,-1.9375,0.002891354
60577.5369,11.6875,47.25,7.275258,-1.4375,0.002892911
60577.5394,11.4375,46.875,9.534036,-1.5,0.002920942
60577.5419,11.625,47.125,11.54129,-1.4375,0.002894468
60577.5444,11.6875,47.0625,12.85832,-1.5,0.002850864
60577.5469,11.625,46.875,13.54366,-1.3125,0.002871109
60577.5494,11.5625,46.75,14.14697,-1.4375,0.002866437
60577.5519,11.6875,46.75,15.45619,-1.5625,0.00286488
60577.5544,11.9375,46.75,18.12214,-1.4375,0.002819718
60577.5569,11.6875,46.75,22.34559,-1.4375,0.002796358
60577.5594,11.8125,46.4375,27.77762,-1.625,0.002791687
60577.5619,11.6875,46.625,33.67564,-1.5,0.002843077
60577.5644,11.75,46.4375,39.23045,-1.6875,0.002721608
60577.5669,11.875,46.4375,43.90081,-1.8125,0.003053313
60577.5694,11.8125,46.375,47.59715,-1.5625,0.002350971
60577.5719,11.9375,46.25,50.63988,-2.125,-0.001009684
60577.5744,11.875,46.3125,53.53219,-1.6875,-0.001701125
60577.5769,11.875,46.0625,56.67349,-1.625,-0.002289785
60577.5794,11.6875,46.0,60.15667,-1.9375,-0.001775876
60577.5819,11.9375,45.9375,63.73745,-1.8125,0.002217043
60577.5844,11.875,46.0,66.97308,-1.9375,0.002771442
60577.5869,11.6875,45.8125,69.44506,-1.5625,0.002545633
60577.5894,11.6875,45.8125,70.9489,-2.125,0.002734066
60577.5919,11.5,45.6875,71.56605,-2.0,0.002738738
60577.5944,11.6875,45.5,71.5993,-1.9375,0.002760541
60577.5969,11.75,45.625,71.4237,-2.1875,0.002771442
60577.5994,11.8125,45.5625,71.33651,-1.8125,0.002788572
60577.6019,11.6875,45.25,71.47569,-2.4375,0.002768327
60577.6044,11.8125,45.4375,71.82978,-2.0625,0.002774556
60577.6069,11.8125,45.375,72.31094,-2.0625,0.002797916
60577.6094,11.5625,45.125,72.83695,-1.9375,0.002816603
60577.6119,11.5625,45.0,73.37567,-1.5625,0.002804145
60577.6144,11.875,45.0,73.93743,-1.875,0.002774556
60577.6169,11.6875,45.0,74.53564,-1.6875,0.002776114
60577.6194,11.5625,45.0,75.15182,-2.0625,0.002818161
60577.6219,11.6875,44.9375,75.7327,-1.9375,0.002818161
60577.6244,11.75,45.1875,76.22095,-2.0,0.002804145
60577.6269,11.6875,45.125,76.59753,-2.125,0.002782343
60577.6294,11.6875,45.25,76.90453,-1.6875,0.002793244
60577.6319,11.8125,45.5625,77.22978,-1.75,0.00282439
60577.6344,11.6875,45.6875,77.66161,-1.5,0.00280726
60577.6369,11.875,45.9375,78.23817,-1.6875,0.002810374
60577.6394,11.875,46.5,78.92319,-1.6875,0.002788572
60577.6419,11.875,47.125,79.62179,-1.875,0.002802588
60577.6444,11.8125,48.0,80.22953,-1.6875,0.002835291
60577.6469,11.8125,49.125,80.68629,-1.4375,0.002836848
60577.6494,11.9375,50.4375,81.00254,-1.3125,0.002830619
60577.6519,12.1875,51.75,81.24525,-1.5,0.002815046
60577.6544,12.125,53.0625,81.49255,-1.5625,0.002825947
60577.6569,12.125,54.25,81.78226,-1.25,0.002863322
60577.6594,12.0,55.4375,82.08591,-1.3125,0.002886682
60577.6619,12.125,56.5,82.32233,-1.8125,0.002877338
60577.6644,12.1875,57.625,82.40182,-2.125,0.002894468
60577.6669,12.3125,58.5,82.2766,-2.0625,0.002925614
60577.6694,12.1875,59.375,81.96727,-1.625,0.002966104
60577.6719,12.3125,60.1875,81.5493,-1.9375,0.002984792
60577.6744,12.1875,61.3125,81.10875,-1.9375,0.00299725
60577.6769,12.3125,62.25,80.6925,-1.875,0.003067329
60577.6794,12.4375,63.4375,80.28162,-1.5,0.002883567
60577.6819,12.3125,64.375,79.80595,-1.25,0.003565665
60577.6844,12.3125,65.5,79.19106,-1.3125,0.002335398
60577.6869,12.5625,66.5,78.40926,-1.4375,-0.002848856
60577.6894,12.4375,67.625,77.50457,-1.5,-0.00303106
60577.6919,12.1875,68.6875,76.57467,-1.5,-0.003189904
60577.6944,12.3125,69.6875,75.71794,-1.0625,-0.002324045
60577.6969,12.5,70.875,74.97704,-0.8125,0.002481784
60577.6994,12.4375,72.125,74.31289,-1.1875,0.003006594
60577.7019,12.4375,73.125,73.62756,-1.4375,0.002682676
60577.7044,12.5,74.125,72.8233,-1.8125,0.002927172
60577.7069,12.5,75.0625,71.86737,-1.5,0.002910041
60577.7094,12.5,76.0,70.82179,-1.8125,0.002919385
60577.7119,12.375,76.75,69.81618,-1.8125,0.002947417
60577.7144,12.375,77.5,68.97598,-1.5625,0.003019052
60577.7169,12.5625,78.5,68.3446,-1.25,0.003106261
60577.7194,12.4375,79.25,67.84647,-1.5625,0.003146751
60577.7219,12.5625,79.875,67.31748,-1.5625,0.003149866
60577.7244,12.625,80.5,66.59151,-1.5,0.003106261
60577.7269,12.5625,81.25,65.59646,-1.4375,0.003028396
60577.7294,12.6875,81.8125,64.40099,-1.875,0.002927172
60577.7319,12.5625,82.375,63.18058,-1.875,0.002758983
60577.7344,12.5625,82.875,62.11198,-1.9375,0.002550305
60577.7369,12.75,83.3125,61.24938,-2.1875,0.002441294
60577.7394,12.625,83.75,60.45571,-2.4375,0.002389903
60577.7419,12.5,84.125,59.43534,-2.3125,0.002340069
60577.7444,12.8125,84.4375,57.86461,-2.5,0.002301137
60577.7469,12.5,84.6875,55.55835,-1.9375,0.00229335
60577.7494,12.6875,84.8125,52.58535,-2.625,0.002296465
60577.7519,12.625,85.0,49.26549,-2.1875,0.002321382
60577.7544,12.625,85.375,46.03908,-1.8125,0.002372773
60577.7569,12.6875,85.5,43.27282,-1.75,0.002473997
60577.7594,12.5625,85.5,41.10199,-2.0625,0.002578336
60577.7619,12.5625,85.625,39.39572,-1.9375,0.002673332
60577.7644,12.8125,85.75,37.86876,-1.9375,0.002811931
60577.7669,12.625,85.6875,36.28389,-1.8125,0.002917828
60577.7694,12.8125,85.875,34.63435,-1.9375,0.002989464
60577.7719,12.6875,85.625,33.20092,-2.5625,0.003056428
60577.7744,12.625,85.5,32.44212,-2.0,0.003101589
60577.7769,12.5625,85.625,32.76324,-1.8125,0.003121834
60577.7794,12.6875,85.5,34.28032,-2.0,0.003115605
60577.7819,12.75,85.5,36.70212,-2.0,0.003128063
60577.7844,12.6875,85.0,39.39969,-2.25,0.003134293
60577.7869,12.875,84.6875,41.63908,-1.9375,0.003142079
60577.7894,12.5625,84.4375,42.86948,-2.0,0.003156095
60577.7919,12.75,84.25,42.93148,-2.0625,0.003179454
60577.7944,12.625,83.875,42.08932,-2.25,0.002910041
60577.7969,12.8125,83.5625,40.87916,-2.5625,0.003592139
60577.7994,12.875,83.3125,39.85405,-2.3125,0.002252861
60577.8019,12.625,82.875,39.3512,-1.8125,-0.003286457
60577.8044,12.8125,82.3125,39.38724,-2.125,-0.003521609
60577.8069,12.625,81.8125,39.7154,-2.25,-0.003717829
60577.8094,12.75,81.375,39.99635,-2.125,-0.002713371
60577.8119,12.75,81.0,39.98339,-1.625,0.002389903
60577.8144,12.75,80.375,39.62837,-1.75,0.002961432
60577.8169,12.75,79.625,39.06718,-2.0,0.002639071
60577.8194,12.625,79.1875,38.51154,-2.0625,0.002867994
60577.8219,12.5625,78.25,38.11975,-2.0,0.002888239
60577.8244,12.6875,77.8125,37.91957,-1.9375,0.002953646
60577.8269,12.5625,77.0,37.81757,-1.625,0.002989464
60577.8294,12.8125,76.3125,37.67538,-1.9375,0.00298012
60577.8319,12.75,75.5,37.39856,-1.9375,0.003011266
60577.8344,12.8125,74.6875,36.98318,-1.8125,0.003047084
60577.8369,12.625,73.9375,36.49891,-1.9375,0.003067329
60577.8394,12.625,73.25,36.02799,-2.375,0.003084459
60577.8419,12.75,72.375,35.60508,-2.1875,0.003090688
60577.8444,12.6875,71.6875,35.19821,-2.0625,0.003107819
60577.8469,12.5625,71.0625,34.74129,-2.3125,0.003117162
60577.8494,12.75,70.4375,34.19286,-2.25,0.003123392
60577.8519,12.75,69.625,33.57892,-2.375,0.003100032
60577.8544,12.75,69.1875,32.98764,-2.125,0.003082902
60577.8569,12.6875,68.625,32.51527,-1.875,0.003100032
60577.8594,12.6875,68.25,32.19504,-2.3125,0.003134293
60577.8619,12.625,67.625,31.95474,-2.0625,0.00313585
60577.8644,12.8125,67.125,31.63435,-2.125,0.00313585
60577.8669,12.5625,66.75,31.06166,-1.875,0.003171668
60577.8694,12.75,66.3125,30.14904,-2.4375,0.003218387
60577.8719,12.75,65.8125,28.95988,-2.125,0.003240189
60577.8744,12.6875,65.5625,27.70535,-2.0625,0.003247976
60577.8769,12.75,65.125,26.66698,-2.0,0.003247976
60577.8794,12.75,64.4375,26.07827,-2.3125,0.003286908
60577.8819,12.875,64.125,26.0204,-1.8125,0.003338299
60577.8844,12.625,63.75,26.38258,-1.8125,0.003347643
60577.8869,12.75,63.1875,26.90761,-2.1875,0.003356987
60577.8894,12.6875,62.9375,27.3042,-2.0625,0.003361659
60577.8919,12.75,62.4375,27.3766,-1.9375,0.003391247
60577.8944,12.9375,61.9375,27.11346,-1.6875,0.003442638
60577.8969,12.75,61.6875,26.69541,-1.9375,0.003484685
60577.8994,12.6875,61.3125,26.41629,-1.9375,0.0034878
60577.9019,12.8125,60.75,26.55048,-2.125,0.00347067
60577.9044,12.9375,60.625,27.22314,-2.125,0.003481571
60577.9069,12.75,60.3125,28.34091,-2.3125,0.003565665
60577.9094,12.75,59.9375,29.61627,-2.0625,0.003277564
60577.9119,12.8125,59.6875,30.67948,-1.9375,0.00403597
60577.9144,12.6875,59.375,31.23289,-1.9375,0.002458424
60577.9169,12.75,59.125,31.1815,-1.6875,-0.003762991
60577.9194,12.75,58.8125,30.67942,-1.8125,-0.003727173
60577.9219,12.8125,58.5,30.0668,-1.8125,-0.003808153
60577.9244,12.6875,58.1875,29.71992,-1.875,-0.002718042
60577.9269,12.75,58.125,29.87932,-1.9375,0.002832176
60577.9294,12.75,57.875,30.53513,-2.125,0.003279122
60577.9319,12.6875,57.5,31.4265,-1.875,0.002908484
60577.9344,12.5625,57.1875,32.16045,-2.0625,0.003162324
60577.9369,12.75,57.25,32.39758,-2.0,0.00311872
60577.9394,12.75,56.8125,32.01614,-1.875,0.003137407
60577.9419,12.625,56.6875,31.17259,-2.375,0.003190355
60577.9444,12.6875,56.375,30.22441,-2.5625,0.003246418
60577.9469,12.6875,56.0625,29.54963,-2.0625,0.003271335
60577.9494,12.75,55.875,29.3507,-2.125,0.003232403
60577.9519,12.75,55.875,29.54151,-1.75,0.00317634
60577.9544,12.75,55.4375,29.77827,-1.5625,0.003036183
60577.9569,12.875,55.375,29.62169,-1.75,0.002779228
60577.9594,12.8125,55.25,28.75089,-1.4375,0.002522274
60577.9619,12.625,55.0,27.12233,-1.5625,0.002308923
60577.9644,12.8125,55.0,24.99274,-2.0,0.002185897
60577.9669,12.6875,54.875,22.79754,-1.5,0.002171881
60577.9694,12.9375,54.5,20.94725,-1.8125,0.002199912
60577.9719,13.0625,54.5,19.64575,-2.125,0.002282449
60577.9744,12.6875,54.3125,18.82063,-1.8125,0.0023572
60577.9769,12.75,54.125,18.19476,-2.375,0.00244908
60577.9794,12.6875,53.875,17.45392,-2.0,0.00254719
60577.9819,12.9375,53.6875,16.41718,-1.875,0.002642186
60577.9844,13.0625,53.875,15.11928,-1.8125,0.002744968
60577.9869,12.875,53.5625,13.76765,-1.75,0.002872666
60577.9894,12.9375,53.375,12.60718,-2.0,0.003015938
60577.9919,13.0,53.25,11.77335,-1.9375,0.003173225
60577.9944,12.8125,53.0625,11.21813,-1.9375,0.003238632
60577.9969,13.0,53.0625,10.74569,-2.3125,0.003258877
60577.9994,13.0625,52.5625,10.13074,-2.125,0.003285351
60578.0019,13.0625,52.5625,9.245186,-2.0,0.003324283
60578.0044,13.1875,52.5,8.117863,-1.625,0.003344528
60578.0069,13.0,52.375,6.893241,-1.375,0.003335184
60578.0094,13.1875,52.25,5.718243,-1.4375,0.003339856
60578.0119,13.0,52.1875,4.62983,-1.75,0.003328955
60578.0144,13.125,52.0,3.51592,-2.0,0.003335184
60578.0169,13.3125,51.9375,2.180821,-2.125,0.003336742
60578.0194,13.1875,51.75,0.4838362,-2.0625,0.003346086
60578.0219,13.3125,51.875,-1.528526,-2.625,0.003397476
60578.0244,13.1875,51.6875,-3.575118,-2.0625,0.003090688
60578.0269,13.25,51.625,-5.215632,-2.1875,0.003875568
60578.0294,13.375,51.5,-6.020106,-2.0,0.002355642
60578.0319,13.5,51.375,-5.754914,-2.1875,-0.003791022
60578.0344,13.5,51.3125,-4.492804,-2.5625,-0.003801924
60578.0369,13.5625,51.25,-2.591346,-2.0,-0.003889132
60578.0394,13.5,50.9375,-0.5519021,-1.8125,-0.002732058
60578.0419,13.5,51.125,1.173594,-2.125,0.002793244
60578.0444,13.5625,51.125,2.338943,-2.1875,0.00317634
60578.0469,13.4375,50.6875,2.954597,-2.125,0.002816603
60578.0494,13.5625,50.75,3.22194,-2.4375,0.003131178
60578.0519,13.5,50.8125,3.396227,-2.25,0.00315298
60578.0544,13.625,50.875,3.651061,-1.9375,0.00317634
60578.0569,13.6875,50.6875,4.009637,-2.125,0.003179454
60578.0594,13.5625,50.5,4.366663,-2.0,0.003202814
60578.0619,13.625,50.6875,4.574072,-2.5,0.003249533
60578.0644,13.625,50.5625,4.535878,-2.1875,0.003276007
60578.0669,13.5,50.375,4.260839,-1.8125,0.003272892
60578.0694,13.625,50.4375,3.84824,-2.0,0.003272892
60578.0719,13.5625,50.3125,3.424889,-1.625,0.003286908
60578.0744,13.5625,50.5625,3.0764,-1.6875,0.003324283
60578.0769,13.6875,50.375,2.813312,-2.0625,0.003352315
60578.0794,13.5,50.3125,2.588855,-2.625,0.003346086
60578.0819,13.8125,50.25,2.353322,-3.0625,0.003369445
60578.0844,13.5,50.0625,2.107975,-2.5625,0.003378789
60578.0869,13.75,49.875,1.923362,-2.1875,0.00343018
60578.0894,13.5,50.0,1.908304,-2.5,0.003467555
60578.0919,13.625,49.6875,2.14787,-2.4375,0.003462883
60578.0944,13.6875,49.6875,2.642615,-2.6875,0.003518946
60578.0969,13.5625,49.5625,3.286216,-2.375,0.003568779
60578.0994,13.625,49.4375,3.897461,-2.3125,0.00360304
60578.1019,13.8125,49.375,4.291017,-2.1875,0.003640415
60578.1044,13.6875,49.25,4.352126,-2.125,0.003648202
60578.1069,13.6875,49.3125,4.076733,-1.6875,0.003693364
60578.1094,13.6875,49.125,3.556926,-1.375,0.003735411
60578.1119,13.8125,49.125,2.920493,-1.875,0.003755656
60578.1144,13.75,49.25,2.257486,-1.8125,0.00374164
60578.1169,13.875,49.125,1.575263,-1.8125,0.003715166
60578.1194,13.9375,49.3125,0.8041586,-2.0,0.003712051
60578.1219,13.75,49.25,-0.1481604,-1.75,0.00370115
60578.1244,13.9375,49.3125,-1.322855,-1.6875,0.003671561
60578.1269,14.0,49.25,-2.660554,-2.125,0.003627957
60578.1294,13.75,49.1875,-4.006198,-1.625,0.003604597
60578.1319,13.9375,49.3125,-5.171261,-1.625,0.003589024
60578.1344,13.9375,49.1875,-6.024322,-1.6875,0.003570337
60578.1369,14.0,49.125,-6.563212,-1.8125,0.003615499
60578.1394,13.875,49.0625,-6.928024,-1.3125,0.003254205
60578.1419,13.75,48.8125,-7.33992,-1.5625,0.004054657
60578.1444,14.0625,48.8125,-7.992348,-2.0,0.002366544
60578.1469,13.75,48.8125,-8.943433,-1.6875,-0.004094696
60578.1494,14.0625,48.5,-10.06323,-1.625,-0.003778564
60578.1519,14.0625,48.4375,-11.06688,-1.3125,-0.003829955
60578.1544,14.1875,48.375,-11.62541,-1.5,-0.002725829
60578.1569,14.25,48.375,-11.508,-1.375,0.002945859
60578.1594,13.9375,48.4375,-10.69226,-1.375,0.003285351
60578.1619,14.1875,48.1875,-9.392722,-1.5625,0.002900698
60578.1644,14.3125,48.3125,-7.991528,-1.1875,0.003177897
60578.1669,14.3125,48.1875,-6.900559,-1.9375,0.003162324
60578.1694,14.1875,48.125,-6.413345,-1.9375,0.003215272
60578.1719,14.1875,48.125,-6.61023,-2.25,0.003240189
60578.1744,14.125,48.0625,-7.354948,-2.0625,0.003255762
60578.1769,14.3125,48.125,-8.377945,-2.0625,0.003235517
60578.1794,14.3125,48.0625,-9.404394,-1.75,0.003191913
60578.1819,14.3125,47.875,-10.26734,-2.0625,0.003079787
60578.1844,14.3125,48.0,-10.9575,-2.125,0.002945859
60578.1869,14.375,48.0,-11.59391,-2.0625,0.002866437
60578.1894,14.3125,47.9375,-12.33675,-1.9375,0.002782343
60578.1919,14.4375,47.875,-13.28849,-2.3125,0.002629727
60578.1944,14.4375,48.0,-14.43077,-2.375,0.002481784
60578.1969,14.3125,47.75,-15.624,-2.125,0.002464653
60578.1994,14.5625,47.75,-16.66572,-2.3125,0.002500471
60578.2019,14.5,47.875,-17.37777,-2.0,0.002581451
60578.2044,14.4375,47.625,-17.68204,-2.0625,0.002688905
60578.2069,14.625,47.8125,-17.63374,-1.8125,0.002785457
60578.2094,14.4375,47.625,-17.40136,-1.8125,0.002867994
60578.2119,14.5,47.625,-17.20425,-1.6875,0.002952089
60578.2144,14.6875,47.625,-17.23534,-1.5625,0.003084459
60578.2169,14.5625,47.375,-17.59673,-1.875,0.003221501
