Time (s),Venous (mmHg),FAP (mmHg),Arterial - Pigtail (mmHg),Swan (mmHg),EKG (mV)
60580.1144,11.75,44.9375,10.13258,-1.8125,0.00295676
60580.1169,11.8125,45.0625,9.776866,-1.625,0.003028396
60580.1194,11.8125,44.9375,9.164005,-1.5625,0.003089131
60580.1219,11.8125,44.9375,8.269105,-1.875,0.003109376
60580.1244,11.75,45.0,7.194831,-1.9375,0.003123392
60580.1269,11.875,44.75,6.113873,-2.3125,0.003121834
60580.1294,11.5625,44.6875,5.189325,-2.125,0.003134293
60580.1319,11.875,44.6875,4.518146,-1.6875,0.003137407
60580.1344,11.75,44.5625,4.123962,-1.6875,0.003129621
60580.1369,11.8125,44.5,3.993864,-1.8125,0.003151423
60580.1394,11.75,44.5,4.129711,-1.9375,0.003156095
60580.1419,11.75,44.25,4.580175,-1.75,0.003148308
60580.1444,11.6875,44.1875,5.435861,-2.375,0.003132735
60580.1469,11.75,44.1875,6.794897,-2.5625,0.003124949
60580.1494,11.875,44.0,8.723371,-1.9375,0.003123392
60580.1519,11.9375,43.9375,11.23463,-2.3125,0.003128063
60580.1544,11.875,43.75,14.29721,-2.0625,0.003142079
60580.1569,11.6875,43.6875,17.86081,-1.875,0.003109376
60580.1594,11.875,43.625,21.87877,-1.5,0.003081344
60580.1619,11.875,43.625,26.31095,-1.5625,0.003087574
60580.1644,11.875,43.4375,31.10641,-1.75,0.003098475
60580.1669,11.9375,43.375,36.18149,-1.5625,0.003110933
60580.1694,11.875,43.3125,41.41301,-1.375,0.003086016
60580.1719,11.8125,43.1875,46.65714,-2.0625,0.00305487
60580.1744,11.9375,43.125,51.78288,-1.875,0.00303774
60580.1769,12.0625,43.1875,56.69813,-1.6875,0.003056428
60580.1794,11.9375,43.0,61.34882,-2.125,0.003064214
60580.1819,11.9375,43.0,65.68684,-2.375,0.003028396
60580.1844,11.8125,42.875,69.62717,-1.625,0.002998808
60580.1869,11.9375,42.75,73.02438,-1.625,0.002995693
60580.1894,11.875,42.75,75.69437,-2.5,0.003039297
60580.1919,11.8125,42.6875,77.48072,-1.9375,0.003042412
60580.1944,11.9375,42.625,78.34144,-1.125,0.002995693
60580.1969,11.8125,42.625,78.40952,-2.8125,0.002983235
60580.1994,11.9375,42.5625,77.99021,-2.9375,0.002984792
60580.2019,11.8125,42.625,77.48457,-2.25,0.002998808
60580.2044,11.9375,42.5625,77.26226,-2.875,0.003001922
60580.2069,11.8125,42.375,77.54014,-0.4375,0.002972333
60580.2094,11.9375,42.3125,78.31961,-1.3125,0.002991021
60580.2119,11.75,42.125,79.40974,-1.3125,0.002970776
60580.2144,11.8125,42.1875,80.52335,-4.5625,0.002970776
60580.2169,11.6875,42.0625,81.40121,-3.5625,0.002953646
60580.2194,12.0,42.0,81.90807,-3.4375,0.002930286
60580.2219,11.8125,41.8125,82.05986,-1.625,0.002942745
60580.2244,11.75,41.6875,81.9797,-1.25,0.00293963
60580.2269,11.8125,41.75,81.8124,-2.3125,0.002936516
60580.2294,11.75,41.8125,81.64558,-1.4375,0.002925614
60580.2319,11.8125,41.6875,81.4762,-1.625,0.002931844
60580.2344,11.9375,41.8125,81.23441,-1.4375,0.002938073
60580.2369,11.875,42.0,80.84331,-2.0625,0.002934958
60580.2394,12.0,42.0,80.27773,-2.3125,0.002941187
60580.2419,12.0625,42.375,79.58808,-2.6875,0.002908484
60580.2444,11.9375,43.0625,78.87728,-2.25,0.0029225
60580.2469,11.9375,44.4375,78.24698,-2.0625,0.002927172
60580.2494,12.1875,46.5,77.74556,-1.5,0.002924057
60580.2519,12.3125,48.75,77.34653,-1.375,0.002942745
60580.2544,12.3125,51.0625,76.96835,-0.8125,0.002917828
60580.2569,12.375,53.0625,76.52381,-0.9375,0.002897583
60580.2594,12.1875,54.625,75.96802,-0.9375,0.0029225
60580.2619,12.1875,55.8125,75.31975,-1.5,0.002938073
60580.2644,12.375,56.875,74.64405,-2.0,0.002928729
60580.2669,12.1875,57.6875,74.0074,-2.6875,0.002891354
60580.2694,12.5,58.5,73.43417,-2.25,0.002924057
60580.2719,12.375,59.375,72.89137,-1.9375,0.002955203
60580.2744,12.3125,60.375,72.31271,-1.0625,0.00296299
60580.2769,12.4375,61.3125,71.64922,-1.0625,0.002998808
60580.2794,12.3125,62.1875,70.91554,-1.5625,0.00298012
60580.2819,12.4375,63.0625,70.20068,-2.0,0.002998808
60580.2844,12.5,64.1875,69.63202,-2.5625,0.003053313
60580.2869,12.5,65.125,69.30835,-2.5625,0.003110933
60580.2894,12.4375,66.4375,69.23698,-2.625,0.003173225
60580.2919,12.4375,67.6875,69.31251,-2.875,0.003187241
60580.2944,12.625,68.9375,69.35249,-2.625,0.003246418
60580.2969,12.5,69.875,69.17751,-2.1875,0.003299367
60580.2994,12.375,70.875,68.69559,-2.4375,0.003310268
60580.3019,12.6875,71.875,67.94582,-2.75,0.003335184
60580.3044,12.6875,73.0,67.07561,-2.375,0.003338299
60580.3069,12.5,73.8125,66.26087,-2.5,0.003371002
60580.3094,12.5625,74.75,65.60935,-2.4375,0.0033492
60580.3119,12.5625,75.3125,65.09901,-2.0625,0.003305596
60580.3144,12.8125,76.3125,64.58688,-1.625,0.00327445
60580.3169,12.6875,77.0625,63.88487,-1.8125,0.00327445
60580.3194,12.625,77.4375,62.86189,-1.75,0.003279122
60580.3219,12.6875,78.3125,61.51762,-1.9375,0.003241746
60580.3244,12.5,78.875,59.98161,-1.6875,0.003218387
60580.3269,12.5,79.375,58.43784,-1.9375,0.003184126
60580.3294,12.625,79.8125,57.01456,-2.0625,0.003191913
60580.3319,12.875,80.375,55.70155,-2.3125,0.003218387
60580.3344,12.8125,80.5625,54.34619,-2.25,0.003190355
60580.3369,12.75,80.8125,52.73571,-2.3125,0.003165439
60580.3394,12.6875,81.0625,50.72412,-2.375,0.003145194
60580.3419,12.75,81.625,48.33327,-2.4375,0.003162324
60580.3444,12.75,81.75,45.76694,-2.5625,0.003201257
60580.3469,12.6875,81.8125,43.32086,-2.625,0.003187241
60580.3494,12.8125,82.3125,41.23327,-2.625,0.003171668
60580.3519,12.8125,82.375,39.55392,-2.375,0.003146751
60580.3544,12.875,82.4375,38.10762,-2.1875,0.003165439
60580.3569,12.625,82.4375,36.58145,-1.8125,0.003202814
60580.3594,12.75,82.375,34.69738,-1.75,0.003188798
60580.3619,12.75,82.5625,32.38237,-1.625,0.003188798
60580.3644,12.8125,82.5,29.84269,-1.5625,0.003185684
60580.3669,12.8125,82.4375,27.49558,-1.8125,0.003188798
60580.3694,12.8125,82.375,25.78455,-1.6875,0.003190355
60580.3719,12.75,82.3125,24.96838,-2.0625,0.003218387
60580.3744,12.75,82.25,24.99129,-2.125,0.003205928
60580.3769,12.6875,82.25,25.50397,-1.625,0.003212158
60580.3794,12.8125,81.875,26.02675,-1.75,0.003205928
60580.3819,12.875,81.5,26.17048,-2.3125,0.003195027
60580.3844,12.6875,81.375,25.80495,-2.375,0.003199699
60580.3869,12.625,81.1875,25.08919,-1.875,0.0032106
60580.3894,12.6875,80.8125,24.35084,-1.9375,0.003198142
60580.3919,12.75,80.5,23.88325,-1.9375,0.003224616
60580.3944,12.875,80.1875,23.77199,-1.9375,0.003240189
60580.3969,12.75,79.6875,23.84686,-2.125,0.003226173
60580.3994,12.625,79.5,23.78531,-2.3125,0.003212158
60580.4019,12.75,79.1875,23.3094,-1.5625,0.003195027
60580.4044,12.75,78.625,22.36393,-1.6875,0.003240189
60580.4069,12.8125,78.125,21.17188,-2.0,0.003232403
60580.4094,12.6875,77.375,20.1299,-2.1875,0.003199699
60580.4119,12.75,76.75,19.59554,-2.1875,0.003184126
60580.4144,12.8125,76.3125,19.68261,-2.4375,0.003213715
60580.4169,12.625,75.625,20.18169,-2.125,0.003238632
60580.4194,12.6875,75.0,20.65918,-2.1875,0.003227731
60580.4219,12.6875,74.3125,20.69052,-2.3125,0.003209043
60580.4244,12.6875,73.5,20.10471,-1.9375,0.003188798
60580.4269,12.625,72.9375,19.10312,-2.0625,0.003215272
60580.4294,12.5625,72.0625,18.17542,-1.875,0.003238632
60580.4319,12.75,71.5625,17.84208,-2.1875,0.003209043
60580.4344,12.5625,70.75,18.351,-2.1875,0.003179454
60580.4369,12.5625,70.0625,19.49149,-2.125,0.003181012
60580.4394,12.75,69.3125,20.63809,-2.3125,0.003223059
60580.4419,12.75,68.8125,21.02365,-2.0,0.003249533
60580.4444,12.4375,68.0,20.12016,-2.5,0.003207486
60580.4469,12.75,67.5625,17.9395,-2.625,0.003187241
60580.4494,12.875,67.1875,15.0949,-2.875,0.003191913
60580.4519,12.5625,66.5,12.57408,-3.0625,0.003209043
60580.4544,12.625,66.25,11.31686,-3.125,0.003227731
60580.4569,12.8125,65.6875,11.79177,-3.25,0.003219944
60580.4594,12.6875,65.5625,13.77346,-2.6875,0.00321683
60580.4619,12.5,64.9375,16.43173,-2.5,0.003219944
60580.4644,12.6875,64.5,18.69385,-2.6875,0.003241746
60580.4669,12.8125,64.0625,19.71126,-2.4375,0.003229288
60580.4694,12.5625,63.375,19.21174,-1.8125,0.003196585
60580.4719,12.8125,63.3125,17.57644,-2.0625,0.003221501
60580.4744,12.75,62.625,15.61631,-1.9375,0.003224616
60580.4769,12.625,62.0625,14.16688,-2.0,0.003223059
60580.4794,12.5625,61.6875,13.70451,-2.0,0.003212158
60580.4819,12.875,61.25,14.16586,-2.3125,0.003209043
60580.4844,12.75,60.9375,15.04278,-2.375,0.003219944
60580.4869,12.9375,60.3125,15.68423,-2.3125,0.003230845
60580.4894,12.8125,59.875,15.63846,-2.1875,0.003254205
60580.4919,12.75,59.625,14.86085,-2.3125,0.003235517
60580.4944,12.8125,59.25,13.69259,-2.3125,0.0032106
60580.4969,12.875,58.875,12.64212,-2.0625,0.00323396
60580.4994,12.8125,58.75,12.10042,-1.625,0.003268221
60580.5019,12.75,58.0,12.14452,-2.125,0.003252647
60580.5044,13.0,57.8125,12.52612,-2.1875,0.003227731
60580.5069,12.8125,57.5,12.83434,-1.6875,0.003202814
60580.5094,12.875,57.1875,12.72919,-1.75,0.003207486
60580.5119,13.0,57.0,12.1134,-1.75,0.003254205
60580.5144,13.0,56.5625,11.15414,-1.9375,0.003258877
60580.5169,12.8125,56.3125,10.15883,-2.125,0.003212158
60580.5194,13.0625,56.0,9.386915,-1.6875,0.003207486
60580.5219,13.0625,55.625,8.912993,-1.9375,0.003221501
60580.5244,12.9375,55.75,8.613278,-2.0625,0.003252647
60580.5269,13.0625,55.4375,8.271248,-2.4375,0.003252647
60580.5294,12.9375,55.1875,7.727959,-2.3125,0.003212158
60580.5319,13.0625,54.75,6.980583,-2.5,0.00321683
60580.5344,13.0625,54.625,6.171608,-2.875,0.003240189
60580.5369,13.0,54.5,5.482526,-2.4375,0.003254205
60580.5394,12.875,54.125,5.00548,-2.25,0.003244861
60580.5419,13.1875,54.0,4.679709,-2.1875,0.003223059
60580.5444,13.125,53.8125,4.336017,-2.6875,0.003243304
60580.5469,13.125,53.5,3.822975,-2.625,0.003268221
60580.5494,13.3125,53.375,3.134323,-2.125,0.003290023
60580.5519,13.125,53.0625,2.452243,-2.1875,0.003313382
60580.5544,13.3125,52.625,2.069281,-2.125,0.003300924
60580.5569,13.1875,52.8125,2.226273,-2.5,0.003327398
60580.5594,13.1875,52.5,2.955472,-2.5625,0.003346086
60580.5619,13.3125,52.1875,4.02456,-2.25,0.00333207
60580.5644,13.1875,52.0,5.021127,-2.5625,0.003313382
60580.5669,13.25,51.75,5.53925,-2.75,0.003311825
60580.5694,13.3125,51.625,5.373966,-3.0625,0.003353872
60580.5719,13.375,51.4375,4.619928,-2.875,0.00336633
60580.5744,13.375,51.1875,3.623595,-2.625,0.003330513
60580.5769,13.3125,51.0625,2.813502,-2.625,0.003294695
60580.5794,13.25,50.8125,2.498477,-2.5,0.003300924
60580.5819,13.3125,50.75,2.73397,-2.4375,0.00329158
60580.5844,13.3125,50.5625,3.320806,-2.625,0.00325109
60580.5869,13.4375,50.4375,3.927011,-2.5,0.003230845
60580.5894,13.4375,50.1875,4.262194,-2.5625,0.003213715
60580.5919,13.375,50.0625,4.215609,-2.6875,0.003227731
60580.5944,13.4375,49.75,3.890655,-2.6875,0.003240189
60580.5969,13.625,49.6875,3.530717,-2.5,0.003238632
60580.5994,13.4375,49.5625,3.386836,-2.6875,0.003232403
60580.6019,13.5625,49.3125,3.599985,-2.75,0.003170111
60580.6044,13.5625,49.25,4.151736,-2.5,0.003160767
60580.6069,13.5,49.1875,4.896057,-2.625,0.003187241
60580.6094,13.5,49.0,5.643704,-3.125,0.003205928
60580.6119,13.5,48.875,6.248628,-2.9375,0.003207486
60580.6144,13.4375,48.6875,6.65683,-3.0,0.003170111
60580.6169,13.625,48.5,6.903933,-2.75,0.003179454
60580.6194,13.4375,48.4375,7.07512,-3.125,0.003182569
60580.6219,13.3125,48.375,7.254084,-3.5,0.003190355
60580.6244,13.5625,48.0,7.484261,-3.5625,0.003202814
60580.6269,13.5,48.0625,7.7518,-3.0,0.003179454
60580.6294,13.4375,47.875,7.988912,-3.125,0.003170111
60580.6319,13.625,47.8125,8.092211,-3.1875,0.003184126
60580.6344,13.5625,47.6875,7.952499,-3.1875,0.003185684
60580.6369,13.4375,47.5,7.492854,-3.375,0.003185684
60580.6394,13.5,47.4375,6.706708,-3.1875,0.003143636
60580.6419,13.5625,47.3125,5.681066,-3.125,0.003126506
60580.6444,13.5625,47.1875,4.584506,-2.875,0.00311249
60580.6469,13.5625,47.1875,3.615908,-2.875,0.003196585
60580.6494,13.5,46.875,2.927412,-2.5,0.003392805
60580.6519,13.5625,46.9375,2.552809,-2.625,0.003599925
60580.6544,13.5,46.875,2.38286,-2.5,0.003685577
60580.6569,13.3125,46.5625,2.208388,-2.5,0.003299367
60580.6594,13.5625,46.6875,1.818102,-2.625,0.002769884
60580.6619,13.5,46.6875,1.107272,-2.625,0.00257055
60580.6644,13.6875,46.625,0.1358738,-2.625,0.002654644
60580.6669,13.625,46.625,-0.8973318,-2.375,0.002791687
60580.6694,13.625,46.5,-1.756644,-2.9375,0.00288201
60580.6719,13.625,46.375,-2.296854,-2.75,0.002978563
60580.6744,13.6875,46.375,-2.544811,-2.875,0.003050198
60580.6769,13.6875,46.25,-2.686638,-2.875,0.003151423
60580.6794,13.375,46.125,-2.96575,-2.6875,0.00323396
60580.6819,13.625,46.0625,-3.543716,-2.8125,0.003244861
60580.6844,13.625,46.0,-4.405419,-2.8125,0.003244861
60580.6869,13.625,45.875,-5.364393,-2.75,0.003238632
60580.6894,13.6875,45.875,-6.167126,-2.8125,0.003279122
60580.6919,13.5,45.75,-6.637048,-2.6875,0.003313382
60580.6944,13.8125,45.75,-6.772822,-2.5625,0.003313382
60580.6969,13.6875,45.625,-6.738457,-2.3125,0.00330871
60580.6994,13.6875,45.5625,-6.747633,-2.375,0.003285351
60580.7019,13.75,45.375,-6.908599,-2.0625,0.003300924
60580.7044,13.625,45.4375,-7.122492,-2.3125,0.003310268
60580.7069,13.5625,45.3125,-7.10253,-2.5,0.003313382
60580.7094,13.875,45.3125,-6.512942,-2.4375,0.003324283
60580.7119,13.75,45.1875,-5.149206,-2.875,0.003310268
60580.7144,14.0625,45.0625,-3.056705,-2.9375,0.003316497
60580.7169,13.875,45.0,-0.5097891,-3.1875,0.00330871
60580.7194,13.9375,44.875,2.148129,-3.0,0.003305596
60580.7219,14.0625,44.8125,4.718937,-2.9375,0.003319611
60580.7244,14.0,44.875,7.296228,-2.5625,0.003300924
60580.7269,13.8125,44.6875,10.25004,-2.1875,0.003299367
60580.7294,13.9375,44.5625,14.04117,-2.875,0.003307153
60580.7319,14.0625,44.5,18.95295,-2.625,0.003290023
60580.7344,14.0625,44.375,24.88046,-2.625,0.003290023
60580.7369,14.1875,44.4375,31.2971,-2.3125,0.00327445
60580.7394,14.0,44.3125,37.42915,-2.25,0.003305596
60580.7419,14.0625,44.3125,42.56134,-2.25,0.003277564
60580.7444,13.875,44.1875,46.32752,-2.125,0.00325109
60580.7469,14.0,44.1875,48.84208,-2.5625,0.003271335
60580.7494,14.1875,44.25,50.60919,-2.625,0.003293137
60580.7519,13.9375,44.125,52.25632,-2.3125,0.003293137
60580.7544,14.25,44.0625,54.22702,-2.375,0.003246418
60580.7569,14.0625,44.0625,56.58545,-2.0625,0.003218387
60580.7594,14.0,43.9375,59.02381,-2.3125,0.003224616
60580.7619,14.1875,43.9375,61.0577,-2.4375,0.003243304
60580.7644,14.0,43.6875,62.30276,-2.0625,0.003247976
60580.7669,13.875,43.6875,62.68473,-2.0,0.003205928
60580.7694,14.0625,43.625,62.48215,-2.25,0.003179454
60580.7719,14.125,43.6875,62.18436,-2.3125,0.003179454
60580.7744,13.875,43.5,62.25045,-2.0625,0.003215272
60580.7769,14.0,43.375,62.89483,-2.3125,0.003226173
60580.7794,14.1875,43.25,64.00684,-2.125,0.003184126
60580.7819,14.0625,43.125,65.23721,-2.125,0.003170111
60580.7844,14.125,43.0625,66.19261,-2.5,0.003173225
60580.7869,14.0625,43.0625,66.63312,-2.0,0.003221501
60580.7894,13.9375,43.125,66.57386,-2.5,0.003226173
60580.7919,14.0,43.0,66.24752,-2.3125,0.0032106
60580.7944,13.9375,42.9375,65.96071,-2.375,0.003201257
60580.7969,14.125,43.0,65.92951,-2.25,0.003174782
60580.7994,14.3125,43.1875,66.18149,-2.625,0.003187241
60580.8019,14.0,43.1875,66.5685,-2.875,0.003209043
60580.8044,14.3125,43.8125,66.87038,-2.75,0.003184126
60580.8069,14.1875,44.3125,66.92455,-2.625,0.003205928
60580.8094,14.1875,45.125,66.70827,-2.875,0.003229288
60580.8119,14.25,46.6875,66.33308,-2.6875,0.00323396
60580.8144,14.3125,48.375,65.96355,-2.4375,0.0032106
60580.8169,14.375,50.1875,65.71449,-2.9375,0.003185684
60580.8194,14.375,52.25,65.58728,-3.0,0.003221501
60580.8219,14.4375,53.625,65.48086,-3.0,0.003221501
60580.8244,14.5,55.1875,65.26572,-2.5,0.003213715
60580.8269,14.3125,56.1875,64.87365,-2.5625,0.003215272
60580.8294,14.4375,57.0625,64.3491,-2.3125,0.003218387
60580.8319,14.625,58.125,63.83148,-2.1875,0.00325109
60580.8344,14.5625,59.0,63.4802,-1.9375,0.003268221
60580.8369,14.6875,60.125,63.3869,-1.875,0.003297809
60580.8394,14.4375,60.875,63.5261,-1.6875,0.00329158
60580.8419,14.8125,61.875,63.77206,-1.625,0.003288465
60580.8444,14.6875,62.8125,63.97017,-1.8125,0.003350757
60580.8469,14.6875,63.625,64.02033,-1.875,0.003386575
60580.8494,14.9375,64.6875,63.92329,-2.125,0.003397476
60580.8519,14.875,65.8125,63.76405,-1.9375,0.003394362
60580.8544,14.75,67.0625,63.64462,-2.125,0.003416164
60580.8569,14.8125,68.25,63.60728,-2.375,0.003439524
60580.8594,14.875,69.4375,63.59334,-2.3125,0.003492472
60580.8619,14.875,70.5625,63.46562,-2.0625,0.00350493
60580.8644,14.875,71.625,63.07979,-1.625,0.003483128
60580.8669,14.875,72.5625,62.3633,-1.6875,0.003484685
60580.8694,14.9375,73.6875,61.35347,-1.75,0.00350493
60580.8719,14.9375,74.375,60.17176,-2.0,0.003501816
60580.8744,14.9375,75.3125,58.9506,-2.25,0.003480013
60580.8769,14.8125,76.25,57.75727,-2.25,0.003456654
60580.8794,14.8125,77.125,56.56238,-2.4375,0.003445753
60580.8819,14.9375,77.9375,55.27399,-2.3125,0.00346444
60580.8844,15.0,78.75,53.81599,-2.5,0.003445753
60580.8869,14.75,79.1875,52.1996,-2.4375,0.003420836
60580.8894,14.8125,79.75,50.53833,-2.75,0.003402148
60580.8919,14.875,80.5,48.98786,-2.375,0.003413049
60580.8944,14.875,80.875,47.6408,-2.3125,0.003408378
60580.8969,14.9375,81.4375,46.43946,-1.9375,0.003378789
60580.8994,14.9375,81.9375,45.16663,-2.125,0.003356987
60580.9019,15.0625,82.4375,43.53452,-2.25,0.003356987
60580.9044,15.0,82.75,41.33382,-1.9375,0.003380346
60580.9069,14.8125,82.8125,38.56541,-2.3125,0.003374117
60580.9094,14.8125,83.25,35.4743,-2.75,0.003392805
60580.9119,14.8125,83.6875,32.45593,-2.5,0.003377232
60580.9144,14.9375,83.875,29.87279,-2.375,0.003375674
60580.9169,15.0,84.1875,27.87349,-2.3125,0.003383461
60580.9194,14.8125,84.25,26.31402,-2.4375,0.00337256
60580.9219,15.0,84.375,24.83167,-2.5625,0.003383461
60580.9244,14.9375,84.5,23.04267,-2.25,0.003377232
60580.9269,14.8125,84.625,20.76595,-2.3125,0.00337256
60580.9294,14.875,84.8125,18.15468,-2.1875,0.003386575
60580.9319,14.875,84.6875,15.66137,-2.0625,0.003367888
60580.9344,14.8125,84.6875,13.84572,-2.625,0.003346086
60580.9369,14.8125,84.4375,13.11716,-3.0625,0.003356987
60580.9394,14.8125,84.5,13.53872,-2.75,0.00337256
60580.9419,14.75,84.375,14.78969,-2.75,0.003394362
60580.9444,14.75,84.0625,16.30289,-2.625,0.003391247
60580.9469,14.9375,83.9375,17.50659,-2.3125,0.003378789
60580.9494,14.8125,83.6875,18.04971,-2.0625,0.003336742
60580.9519,14.75,83.375,17.90558,-1.5625,0.003333627
60580.9544,14.5625,83.0625,17.31642,-2.3125,0.003355429
60580.9569,14.625,82.6875,16.6235,-2.3125,0.003367888
60580.9594,14.8125,82.3125,16.08175,-2.1875,0.003375674
60580.9619,14.875,82.1875,15.75432,-2.375,0.003350757
60580.9644,14.8125,81.8125,15.52933,-2.0625,0.003342971
60580.9669,14.75,81.125,15.23042,-1.9375,0.003350757
60580.9694,14.6875,80.625,14.74415,-2.1875,0.003360101
60580.9719,14.625,80.0,14.08921,-2.1875,0.003342971
60580.9744,14.625,79.4375,13.39528,-1.8125,0.003335184
60580.9769,14.75,79.0625,12.81676,-2.125,0.003355429
60580.9794,14.5,78.4375,12.44243,-2.0625,0.003347643
60580.9819,14.5625,77.6875,12.2575,-1.5,0.003346086
60580.9844,14.4375,77.0,12.17564,-1.875,0.003347643
60580.9869,14.5,76.0,12.10987,-1.5625,0.003339856
60580.9894,14.4375,75.25,12.03021,-1.625,0.003364773
60580.9919,14.25,74.4375,11.96807,-1.9375,0.003353872
60580.9944,14.3125,73.625,11.96833,-2.0625,0.003335184
60580.9969,14.4375,73.125,12.02876,-2.3125,0.003335184
60580.9994,14.4375,72.4375,12.07719,-2.125,0.003325841
60581.0019,14.3125,71.625,12.01044,-2.875,0.003361659
60581.0044,14.375,70.9375,11.77358,-2.3125,0.003360101
60581.0069,14.25,70.125,11.42337,-2.25,0.003335184
60581.0094,14.1875,69.375,11.12194,-2.0,0.00333207
60581.0119,14.375,68.75,11.04796,-2.4375,0.003327398
60581.0144,14.3125,68.3125,11.2701,-2.75,0.003363216
60581.0169,14.3125,67.875,11.66212,-2.25,0.003346086
60581.0194,14.4375,67.375,11.92763,-2.75,0.003294695
60581.0219,14.3125,66.875,11.74323,-2.4375,0.003294695
60581.0244,14.125,66.4375,10.95523,-2.625,0.003319611
60581.0269,14.3125,66.0,9.72051,-2.8125,0.003356987
60581.0294,14.125,65.4375,8.497389,-2.3125,0.003321169
60581.0319,14.0625,64.9375,7.867396,-2.4375,0.003300924
60581.0344,14.1875,64.4375,8.260326,-2.6875,0.003316497
60581.0369,14.125,63.9375,9.717182,-2.8125,0.003344528
60581.0394,14.0625,63.5625,11.82371,-2.75,0.003344528
60581.0419,14.1875,63.0,13.86391,-2.875,0.00331494
60581.0444,14.0,62.625,15.12982,-2.875,0.003324283
60581.0469,14.0625,62.125,15.24083,-2.8125,0.003318054
60581.0494,14.0625,61.625,14.31251,-3.25,0.003330513
60581.0519,14.1875,61.25,12.8917,-3.0,0.003311825
60581.0544,14.0625,60.8125,11.68673,-2.875,0.003300924
60581.0569,13.75,60.4375,11.22844,-2.875,0.00331494
60581.0594,14.125,60.1875,11.63123,-2.8125,0.003328955
60581.0619,14.1875,59.8125,12.56723,-2.75,0.003325841
60581.0644,14.125,59.5,13.45758,-2.625,0.003286908
60581.0669,13.9375,58.875,13.77539,-2.375,0.003283794
60581.0694,14.0,58.8125,13.30025,-2.8125,0.003302481
60581.0719,13.9375,58.3125,12.20082,-2.6875,0.003293137
60581.0744,13.9375,58.0,10.91581,-2.1875,0.003288465
60581.0769,14.0625,57.75,9.909966,-2.125,0.003276007
60581.0794,14.0,57.375,9.440325,-2.3125,0.003280679
60581.0819,14.0625,57.125,9.452486,-2.375,0.003296252
60581.0844,14.0,56.875,9.648277,-2.75,0.003283794
60581.0869,14.25,56.75,9.672638,-2.625,0.00329158
60581.0894,14.0,56.375,9.30965,-2.625,0.003283794
60581.0919,14.125,56.125,8.58189,-2.4375,0.003272892
60581.0944,14.0,55.875,7.710525,-2.5,0.003297809
60581.0969,13.9375,55.5625,6.972557,-3.0625,0.003313382
60581.0994,13.9375,55.375,6.543153,-2.6875,0.003297809
60581.1019,14.0625,55.0,6.411644,-2.625,0.003260434
60581.1044,14.0625,54.9375,6.409373,-2.625,0.003285351
60581.1069,13.9375,54.5,6.322254,-2.6875,0.00330871
60581.1094,14.0625,54.3125,6.016492,-2.9375,0.003338299
60581.1119,13.9375,54.25,5.50588,-2.75,0.003353872
60581.1144,13.875,53.875,4.928971,-2.875,0.003316497
60581.1169,14.0625,53.625,4.458386,-2.8125,0.003311825
60581.1194,14.1875,53.5,4.200302,-2.75,0.003339856
60581.1219,13.9375,53.1875,4.141544,-3.0,0.003350757
60581.1244,13.8125,52.875,4.16834,-3.0,0.003371002
60581.1269,13.8125,52.75,4.138565,-2.625,0.003358544
60581.1294,13.75,52.5,3.961673,-2.875,0.003375674
60581.1319,13.9375,52.4375,3.639855,-2.5,0.003408378
60581.1344,14.0625,52.25,3.254583,-2.375,0.003392805
60581.1369,13.9375,52.125,2.914164,-2.5,0.003361659
60581.1394,13.875,51.9375,2.697655,-2.625,0.003346086
60581.1419,14.0,51.625,2.626186,-2.6875,0.003333627
60581.1444,13.75,51.3125,2.670535,-2.5,0.00331494
60581.1469,13.875,51.125,2.781768,-2.625,0.003286908
60581.1494,14.0,51.3125,2.922605,-3.125,0.003232403
60581.1519,13.8125,50.75,3.080469,-2.3125,0.003223059
60581.1544,13.9375,50.75,3.262774,-2.5625,0.003260434
60581.1569,13.75,50.4375,3.483587,-2.75,0.003247976
60581.1594,13.875,50.3125,3.755756,-2.5,0.00323396
60581.1619,13.875,50.25,4.089266,-2.25,0.003229288
60581.1644,13.6875,50.0,4.493846,-1.8125,0.003215272
60581.1669,14.0,49.875,4.976623,-2.125,0.003229288
60581.1694,13.875,49.6875,5.530856,-2.0,0.003230845
60581.1719,13.8125,49.625,6.127349,-2.125,0.003240189
60581.1744,13.75,49.625,6.718173,-2.375,0.003202814
60581.1769,13.6875,49.375,7.256176,-2.4375,0.003205928
60581.1794,13.75,49.375,7.723355,-2.875,0.003229288
60581.1819,13.625,49.125,8.147105,-2.9375,0.003212158
60581.1844,13.75,48.9375,8.586075,-2.625,0.003195027
60581.1869,13.6875,48.75,9.085154,-2.5,0.00317634
60581.1894,13.6875,48.75,9.622861,-2.375,0.003182569
60581.1919,13.5,48.5625,10.08839,-1.9375,0.00321683
60581.1944,13.5625,48.4375,10.31332,-2.125,0.003215272
60581.1969,13.3125,48.25,10.15341,-1.8125,0.003196585
60581.1994,13.625,48.125,9.58147,-2.0,0.003143636
60581.2019,13.4375,47.875,8.735271,-2.1875,0.003114048
60581.2044,13.625,47.875,7.880811,-2.3125,0.003081344
60581.2069,13.5,47.875,7.297815,-2.1875,0.003140522
60581.2094,13.5,47.6875,7.139981,-2.1875,0.003318054
60581.2119,13.5,47.75,7.346975,-2.1875,0.003501816
60581.2144,13.5,47.5625,7.664079,-2.1875,0.003634186
60581.2169,13.625,47.5,7.768137,-2.375,0.00347067
60581.2194,13.5625,47.3125,7.436919,-2.75,0.003011266
60581.2219,13.75,47.375,6.669562,-2.8125,0.002583008
60581.2244,13.4375,47.3125,5.687581,-2.0625,0.002562763
60581.2269,13.6875,47.3125,4.812087,-1.8125,0.002687347
60581.2294,13.625,47.125,4.28443,-2.4375,0.002794801
60581.2319,13.4375,47.0625,4.133518,-2.875,0.00289914
60581.2344,13.5625,46.875,4.168853,-2.9375,0.002984792
60581.2369,13.5625,46.8125,4.105085,-2.5,0.003050198
60581.2394,13.375,46.8125,3.744721,-2.6875,0.003121834
60581.2419,13.6875,46.8125,3.106082,-2.6875,0.00313585
60581.2444,13.5,46.625,2.413291,-2.5,0.003128063
60581.2469,13.5,46.5625,1.949428,-2.6875,0.003131178
60581.2494,13.625,46.625,1.853603,-2.4375,0.003160767
60581.2519,13.4375,46.4375,1.993825,-2.1875,0.003196585
60581.2544,13.6875,46.25,2.004983,-2.75,0.003191913
60581.2569,13.4375,46.25,1.49025,-2.4375,0.003198142
60581.2594,13.5,46.25,0.2815744,-1.9375,0.003171668
60581.2619,13.4375,46.125,-1.393825,-2.0,0.003181012
60581.2644,13.4375,46.0625,-2.951757,-1.9375,0.0032106
60581.2669,13.625,46.1875,-3.696004,-1.875,0.003184126
60581.2694,13.3125,46.0,-3.151774,-2.0625,0.003156095
60581.2719,13.5625,45.875,-1.309416,-2.375,0.003148308
60581.2744,13.4375,45.875,1.361849,-2.4375,0.003162324
60581.2769,13.5,45.5,4.15075,-2.625,0.003199699
60581.2794,13.625,45.625,6.474504,-2.75,0.003174782
60581.2819,13.6875,45.375,8.188266,-3.125,0.003159209
60581.2844,13.625,45.375,9.665388,-2.5,0.003140522
60581.2869,13.5,45.375,11.60055,-2.625,0.003154538
60581.2894,13.5,45.1875,14.63652,-2.8125,0.003171668
60581.2919,13.5,45.125,19.01168,-2.6875,0.003137407
60581.2944,13.5,45.125,24.41522,-2.0625,0.003123392
60581.2969,13.625,44.9375,30.12551,-2.375,0.003101589
60581.2994,13.5625,44.875,35.35547,-2.6875,0.003086016
60581.3019,13.375,44.625,39.61996,-2.8125,0.003075115
60581.3044,13.625,44.875,42.93119,-2.5625,0.003053313
60581.3069,13.5625,44.8125,45.72554,-2.5625,0.003047084
60581.3094,13.375,44.625,48.57467,-2.625,0.003040855
60581.3119,13.4375,44.6875,51.8441,-2.8125,0.003047084
60581.3144,13.375,44.5625,55.48678,-3.1875,0.003011266
60581.3169,13.375,44.5,59.0775,-3.0,0.002995693
60581.3194,13.375,44.5,62.0575,-3.0,0.002992578
60581.3219,13.25,44.3125,64.04727,-2.5625,0.002973891
60581.3244,13.3125,44.25,65.05352,-2.625,0.002992578
60581.3269,13.125,44.3125,65.46456,-2.375,0.002966104
60581.3294,13.0625,43.875,65.84422,-2.75,0.002938073
60581.3319,13.3125,44.125,66.64508,-2.6875,0.002952089
60581.3344,12.9375,43.9375,67.9954,-2.625,0.002944302
60581.3369,13.0625,43.8125,69.67081,-2.8125,0.00296299
60581.3394,13.0625,43.75,71.24958,-2.875,0.002947417
60581.3419,12.9375,43.6875,72.35802,-2.6875,0.002889796
60581.3444,13.0625,43.5625,72.86559,-2.625,0.002894468
60581.3469,13.0,43.3125,72.93259,-3.0625,0.002920942
60581.3494,13.125,43.4375,72.901,-2.6875,0.002930286
60581.3519,13.0,43.25,73.09974,-2.6875,0.002906927
60581.3544,12.9375,43.25,73.67992,-2.6875,0.002883567
60581.3569,13.0,43.375,74.56172,-2.5625,0.002892911
60581.3594,12.9375,43.375,75.51171,-2.0625,0.002920942
60581.3619,13.125,43.4375,76.29288,-2.4375,0.002942745
60581.3644,13.0625,43.75,76.7962,-2.6875,0.002914713
60581.3669,13.1875,43.8125,77.08276,-2.75,0.00289914
60581.3694,12.9375,44.375,77.32376,-3.1875,0.002888239
60581.3719,13.125,44.75,77.68021,-3.0,0.002908484
60581.3744,12.9375,45.75,78.19846,-2.625,0.002928729
60581.3769,13.0,46.9375,78.78103,-3.125,0.002903812
60581.3794,13.1875,48.375,79.24348,-3.5,0.002911599
60581.3819,13.0,50.125,79.42049,-3.0,0.002896026
60581.3844,13.0625,51.5625,79.2583,-3.125,0.002925614
60581.3869,13.25,53.0625,78.84303,-2.875,0.002955203
60581.3894,12.9375,54.375,78.35355,-2.625,0.002925614
60581.3919,13.0625,55.375,77.96911,-2.1875,0.002936516
60581.3944,13.0625,56.375,77.78238,-2.625,0.002944302
60581.3969,12.9375,57.1875,77.76249,-2.5,0.00296299
60581.3994,13.3125,58.125,77.78513,-2.625,0.002977005
60581.4019,13.25,59.1875,77.70773,-2.5,0.002994136
60581.4044,13.1875,60.0,77.44925,-2.875,0.003036183
60581.4069,13.125,60.9375,77.03381,-2.3125,0.00305487
60581.4094,13.125,61.75,76.57682,-2.5625,0.003087574
60581.4119,13.25,62.75,76.22444,-2.5625,0.003101589
60581.4144,13.25,63.8125,76.07815,-2.5,0.003134293
60581.4169,13.25,64.875,76.14185,-2.625,0.003184126
60581.4194,13.1875,66.0625,76.3169,-2.6875,0.003218387
60581.4219,13.4375,67.0,76.44683,-2.3125,0.003244861
60581.4244,13.125,68.125,76.39001,-2.25,0.003237074
60581.4269,13.25,69.1875,76.08593,-2.125,0.003246418
60581.4294,13.25,70.375,75.58262,-2.1875,0.003257319
60581.4319,13.125,71.25,75.01276,-2.125,0.003249533
60581.4344,13.0,72.3125,74.52885,-2.625,0.00323396
60581.4369,13.1875,73.25,74.22716,-2.75,0.00317634
60581.4394,13.25,74.125,74.09623,-2.5625,0.003162324
60581.4419,13.1875,74.875,74.01673,-2.6875,0.003179454
60581.4444,13.25,75.75,73.81445,-2.6875,0.003179454
60581.4469,13.1875,76.5625,73.34318,-2.5,0.003157652
60581.4494,13.3125,77.5,72.55753,-2.5,0.003128063
60581.4519,13.1875,78.0625,71.53629,-2.375,0.00311249
60581.4544,13.1875,78.75,70.44087,-2.75,0.003100032
60581.4569,13.1875,79.375,69.42501,-3.0,0.003117162
60581.4594,13.1875,79.8125,68.53796,-3.0625,0.003128063
60581.4619,13.125,80.375,67.67179,-2.875,0.003081344
60581.4644,13.1875,80.9375,66.58436,-2.75,0.003076673
60581.4669,13.0625,81.5,64.99522,-2.9375,0.003081344
60581.4694,13.1875,81.875,62.71448,-3.125,0.003086016
60581.4719,13.25,82.1875,59.74502,-2.6875,0.003098475
60581.4744,13.125,82.25,56.30819,-2.8125,0.003070443
60581.4769,13.0625,82.875,52.775,-2.75,0.003079787
60581.4794,12.9375,82.875,49.52885,-3.1875,0.003084459
60581.4819,13.3125,83.375,46.81791,-3.5625,0.003100032
60581.4844,13.25,83.25,44.66327,-3.6875,0.00309536
60581.4869,13.3125,83.375,42.86628,-2.875,0.00307823
60581.4894,13.0625,83.5625,41.11557,-2.5,0.003093803
60581.4919,13.1875,83.75,39.15047,-2.5625,0.003096917
60581.4944,13.125,83.8125,36.91067,-2.5,0.003106261
60581.4969,13.3125,83.75,34.60457,-2.6875,0.00307823
60581.4994,13.25,83.625,32.6595,-2.375,0.003082902
60581.5019,13.3125,83.625,31.56469,-2.3125,0.003104704
60581.5044,13.125,83.875,31.66409,-2.5,0.003093803
60581.5069,13.0,83.6875,32.98216,-2.5,0.003089131
60581.5094,13.1875,83.5625,35.15951,-2.875,0.003075115
60581.5119,13.0625,83.1875,37.53807,-2.3125,0.003086016
60581.5144,13.1875,82.9375,39.37585,-2.5625,0.00311872
60581.5169,12.9375,82.8125,40.11501,-2.625,0.003104704
60581.5194,13.0625,82.625,39.59583,-2.125,0.003087574
60581.5219,13.0625,82.0625,38.12045,-1.875,0.003064214
60581.5244,13.0625,81.8125,36.32687,-1.6875,0.003093803
60581.5269,13.0,81.625,34.91573,-2.0625,0.003117162
60581.5294,12.875,81.125,34.34285,-2.1875,0.003109376
60581.5319,13.0625,80.625,34.61666,-2.375,0.003121834
60581.5344,12.8125,79.9375,35.30113,-2.375,0.003084459
60581.5369,13.0,79.5,35.73481,-2.5625,0.003068886
60581.5394,12.75,79.0,35.37015,-2.6875,0.003110933
60581.5419,12.9375,78.4375,34.07058,-2.4375,0.003110933
60581.5444,12.8125,77.6875,32.21149,-2.25,0.003093803
60581.5469,12.8125,77.0,30.51945,-1.8125,0.003075115
60581.5494,12.9375,76.5,29.71416,-2.1875,0.003087574
60581.5519,12.5625,75.6875,30.12497,-1.9375,0.003096917
60581.5544,12.875,74.875,31.48076,-2.0,0.003098475
60581.5569,12.75,74.375,32.99661,-1.9375,0.003090688
60581.5594,12.6875,73.4375,33.73442,-1.5,0.003076673
60581.5619,12.75,72.75,33.07029,-1.75,0.003104704
60581.5644,12.6875,71.8125,31.0339,-1.5625,0.00309536
60581.5669,12.6875,71.25,28.33755,-2.0,0.003106261
60581.5694,12.4375,70.5,26.06264,-2.0,0.003098475
60581.5719,12.5625,69.75,25.14587,-1.6875,0.003092246
60581.5744,12.625,69.375,25.91784,-2.0625,0.003092246
60581.5769,12.6875,68.8125,27.92692,-1.625,0.003107819
60581.5794,12.625,68.0625,30.14394,-1.8125,0.003092246
60581.5819,12.5625,67.625,31.45244,-1.875,0.003067329
60581.5844,12.5,67.0625,31.18224,-2.3125,0.00307823
60581.5869,12.6875,66.8125,29.42089,-2.375,0.003101589
60581.5894,12.5625,66.1875,26.94995,-2.1875,0.003068886
60581.5919,12.5625,65.8125,24.84281,-2.125,0.003053313
60581.5944,12.5,65.1875,23.93215,-1.75,0.00303774
60581.5969,12.625,65.0,24.41652,-1.625,0.003068886
60581.5994,12.5,64.375,25.79837,-1.875,0.003100032
60581.6019,12.75,63.75,27.17252,-1.8125,0.003068886
60581.6044,12.625,63.3125,27.70432,-1.6875,0.00305487
60581.6069,12.5625,62.8125,27.04745,-1.125,0.003053313
60581.6094,12.5625,62.625,25.49172,-1.4375,0.003073558
60581.6119,12.5625,62.0,23.77924,-1.5625,0.003100032
60581.6144,12.6875,61.6875,22.70053,-1.25,0.003068886
60581.6169,12.8125,61.0625,22.68943,-1.4375,0.003039297
60581.6194,12.75,60.75,23.62333,-1.4375,0.00303774
60581.6219,12.6875,60.375,24.91818,-1.6875,0.003062657
60581.6244,12.6875,60.125,25.85121,-1.625,0.003092246
60581.6269,12.5625,59.6875,25.93025,-1.5625,0.003075115
60581.6294,12.75,59.25,25.11829,-2.0,0.003064214
60581.6319,12.75,58.875,23.81004,-1.9375,0.00303774
60581.6344,12.6875,58.6875,22.59109,-1.9375,0.0030611
60581.6369,12.8125,58.375,21.92381,-1.6875,0.003089131
60581.6394,12.5625,58.1875,21.92562,-1.9375,0.003068886
60581.6419,12.8125,57.8125,22.34599,-1.9375,0.003075115
60581.6444,12.6875,57.4375,22.73526,-2.125,0.003076673
60581.6469,12.625,57.25,22.69923,-2.0,0.003096917
60581.6494,12.6875,56.875,22.09908,-2.125,0.003090688
60581.6519,12.4375,56.6875,21.09773,-1.75,0.003039297
60581.6544,12.75,56.3125,20.04408,-2.1875,0.00305487
60581.6569,12.6875,56.1875,19.27209,-1.9375,0.003067329
60581.6594,12.6875,55.8125,18.92858,-1.8125,0.003064214
60581.6619,12.8125,55.625,18.91702,-1.375,0.003051756
60581.6644,12.625,55.4375,18.97517,-1.875,0.003056428
60581.6669,12.6875,55.25,18.83214,-2.0,0.003100032
60581.6694,12.6875,55.0625,18.35395,-2.0625,0.003104704
60581.6719,12.6875,54.5625,17.6023,-2.5,0.003123392
60581.6744,12.6875,54.4375,16.78435,-2.4375,0.003137407
60581.6769,12.6875,54.125,16.13094,-2.1875,0.003140522
60581.6794,12.8125,53.9375,15.77411,-1.5625,0.003145194
60581.6819,12.8125,53.6875,15.68812,-1.5,0.003157652
60581.6844,12.6875,53.625,15.71887,-2.0625,0.003174782
60581.6869,12.875,53.375,15.67824,-1.4375,0.003156095
60581.6894,12.625,53.25,15.44769,-1.9375,0.003146751
60581.6919,12.75,52.9375,15.03798,-2.375,0.003143636
60581.6944,12.75,52.75,14.57815,-1.9375,0.003163881
60581.6969,12.75,52.5625,14.24327,-2.125,0.003163881
60581.6994,12.75,52.5,14.16389,-2.1875,0.003114048
60581.7019,12.875,52.125,14.36334,-2.0625,0.003053313
60581.7044,12.8125,52.0625,14.75305,-2.25,0.003043969
60581.7069,12.5625,51.75,15.18509,-2.0625,0.003067329
60581.7094,12.875,51.5625,15.53184,-1.875,0.003059542
60581.7119,12.625,51.4375,15.7512,-2.0625,0.003011266
60581.7144,12.9375,51.25,15.90244,-2.1875,0.00299725
60581.7169,12.75,51.25,16.10755,-1.875,0.002986349
60581.7194,12.625,51.0,16.47746,-2.25,0.003001922
60581.7219,12.75,50.8125,17.04403,-2.125,0.003001922
60581.7244,12.6875,50.625,17.73209,-2.25,0.002970776
60581.7269,12.5625,50.5625,18.39305,-1.875,0.002973891
60581.7294,12.625,50.25,18.88444,-2.1875,0.002961432
60581.7319,12.6875,50.1875,19.16,-2.3125,0.002972333
60581.7344,12.5625,50.0,19.31901,-2.0625,0.00298012
60581.7369,12.6875,49.875,19.57924,-1.8125,0.002959875
60581.7394,12.5,49.625,20.17873,-1.8125,0.00295676
60581.7419,12.6875,49.3125,21.24416,-2.625,0.002961432
60581.7444,12.625,49.4375,22.69402,-2.125,0.002952089
60581.7469,12.4375,49.25,24.22941,-1.9375,0.002936516
60581.7494,12.625,49.1875,25.4326,-2.25,0.002928729
60581.7519,12.5,48.9375,25.93992,-2.125,0.002941187
60581.7544,12.875,48.875,25.61236,-1.875,0.00293963
60581.7569,12.5625,48.625,24.61761,-2.3125,0.002919385
60581.7594,12.5625,48.5,23.3759,-1.75,0.002869552
60581.7619,12.4375,48.3125,22.38265,-1.8125,0.00282439
60581.7644,12.5,48.4375,21.98384,-2.25,0.002818161
60581.7669,12.5,48.625,22.21363,-2.375,0.002902255
60581.7694,12.5,48.625,22.77696,-1.6875,0.003123392
60581.7719,12.4375,48.4375,23.19353,-1.875,0.003414607
60581.7744,12.25,48.1875,23.03749,-1.625,0.003568779
60581.7769,12.3125,48.0,22.15491,-1.625,0.003171668
60581.7794,12.3125,47.9375,20.7473,-1.9375,0.002534732
60581.7819,12.3125,47.625,19.27546,-2.3125,0.002254418
60581.7844,12.5,47.625,18.22849,-2.25,0.002287121
60581.7869,12.375,47.4375,17.87211,-1.8125,0.002394575
60581.7894,12.25,47.3125,18.10828,-1.875,0.00251293
60581.7919,12.3125,47.375,18.52197,-1.4375,0.002634399
60581.7944,12.125,47.375,18.59426,-1.4375,0.00274341
60581.7969,12.1875,47.25,17.97471,-1.25,0.002768327
60581.7994,12.1875,47.1875,16.66903,-1.6875,0.002799473
60581.8019,12.25,47.1875,15.04035,-1.5625,0.00285865
60581.8044,12.25,47.125,13.61985,-1.9375,0.002875781
60581.8069,12.0625,47.0,12.82221,-2.0,0.002886682
60581.8094,12.0625,46.9375,12.7181,-2.0,0.002875781
60581.8119,12.1875,46.875,12.98731,-1.8125,0.00288201
60581.8144,12.1875,46.75,13.08517,-1.1875,0.002927172
60581.8169,11.9375,46.6875,12.54054,-1.3125,0.002930286
60581.8194,12.1875,46.6875,11.23058,-1.5625,0.002897583
60581.8219,11.9375,46.625,9.484572,-1.3125,0.002874223
60581.8244,11.875,46.4375,7.95412,-1.1875,0.002888239
60581.8269,11.9375,46.4375,7.309064,-1.375,0.002889796
60581.8294,12.0625,46.4375,7.911253,-1.3125,0.002888239
60581.8319,12.125,46.3125,9.634758,-1.5625,0.002874223
60581.8344,11.9375,46.0625,11.92907,-1.9375,0.00285865
60581.8369,12.0,46.0,14.09881,-2.0625,0.002886682
60581.8394,11.9375,45.8125,15.6628,-2.125,0.002850864
60581.8419,12.0,45.875,16.61101,-2.25,0.002838406
60581.8444,11.875,45.625,17.42854,-2.75,0.002829062
60581.8469,12.0625,45.4375,18.87196,-2.5625,0.00282439
60581.8494,12.0625,45.625,21.60683,-1.8125,0.00285865
60581.8519,12.0625,45.5,25.88409,-2.125,0.002836848
60581.8544,11.9375,45.5,31.41121,-1.9375,0.002794801
60581.8569,12.0,45.4375,37.47594,-2.0625,0.002772999
60581.8594,12.125,45.4375,43.25631,-2.0625,0.002799473
60581.8619,11.9375,45.25,48.16241,-1.3125,0.00282439
60581.8644,11.9375,45.1875,52.04845,-1.5625,0.002788572
60581.8669,11.8125,45.0,55.20338,-1.5,0.002763655
60581.8694,11.9375,45.125,58.14106,-1.9375,0.002771442
60581.8719,12.0625,45.0,61.30763,-2.0625,0.002785457
60581.8744,11.8125,44.8125,64.8507,-1.875,0.002793244
60581.8769,11.875,44.875,68.55679,-2.0625,0.002774556
60581.8794,11.8125,45.0,71.97044,-1.8125,0.002755869
60581.8819,11.8125,44.875,74.62073,-1.75,0.002720051
60581.8844,11.8125,44.5,76.23795,-1.4375,0.002727837
60581.8869,11.8125,44.625,76.86081,-1.5,0.002735624
60581.8894,11.8125,44.3125,76.79808,-1.625,0.002748082
60581.8919,11.625,44.375,76.48094,-1.6875,0.002735624
60581.8944,11.625,44.3125,76.28896,-1.75,0.002713822
60581.8969,11.5,44.1875,76.43034,-1.8125,0.002746525
60581.8994,11.6875,43.9375,76.91605,-1.5,0.002729395
60581.9019,11.6875,44.0,77.62095,-1.3125,0.002720051
60581.9044,11.6875,43.9375,78.38164,-1.625,0.002734066
60581.9069,11.625,43.9375,79.07719,-1.75,0.00272628
60581.9094,11.5625,43.75,79.66149,-1.75,0.002738738
60581.9119,11.5625,43.75,80.14706,-1.6875,0.002729395
60581.9144,11.5625,43.8125,80.56637,-2.0,0.002727837
60581.9169,11.75,43.6875,80.94007,-2.125,0.002749639
60581.9194,11.6875,43.8125,81.26849,-1.875,0.002737181
60581.9219,11.6875,43.9375,81.54459,-1.8125,0.002754311
60581.9244,11.5625,43.8125,81.77143,-1.4375,0.002737181
60581.9269,11.5625,44.1875,81.97071,-1.5,0.002740296
60581.9294,11.6875,44.5,82.17596,-1.6875,0.002768327
60581.9319,11.6875,44.75,82.41617,-1.9375,0.00276677
60581.9344,11.625,45.1875,82.70152,-1.8125,0.002785457
60581.9369,11.8125,46.125,83.01928,-2.1875,0.002763655
60581.9394,11.6875,47.0625,83.34025,-2.3125,0.002741853
60581.9419,11.75,48.5,83.6302,-2.625,0.002765212
60581.9444,11.6875,49.9375,83.8594,-1.6875,0.002797916
60581.9469,11.75,51.25,84.00684,-1.9375,0.002816603
60581.9494,11.8125,52.375,84.06036,-2.3125,0.00280726
60581.9519,11.9375,53.5625,84.01662,-2.4375,0.002808817
60581.9544,11.8125,54.75,83.88177,-2.4375,0.002827504
60581.9569,11.6875,55.6875,83.67184,-1.9375,0.002867994
60581.9594,11.875,56.8125,83.40984,-2.1875,0.002911599
60581.9619,11.875,57.8125,83.11888,-2.0625,0.002919385
60581.9644,11.9375,58.6875,82.81515,-2.0625,0.002928729
60581.9669,11.9375,59.4375,82.50557,-2.5625,0.002944302
60581.9694,12.0,60.3125,82.19187,-2.625,0.003011266
60581.9719,11.9375,61.4375,81.87909,-1.9375,0.003076673
60581.9744,11.875,62.1875,81.58004,-2.0,0.003093803
60581.9769,11.9375,63.3125,81.30946,-2.0,0.003143636
60581.9794,11.8125,64.3125,81.07068,-2.6875,0.003149866
60581.9819,12.125,65.25,80.84145,-2.5625,0.00317634
60581.9844,12.25,66.625,80.57391,-2.75,0.003205928
60581.9869,12.0625,67.5625,80.2137,-2.6875,0.003218387
60581.9894,11.9375,68.6875,79.73098,-2.3125,0.003207486
60581.9919,12.125,69.6875,79.1469,-2.5625,0.00319347
60581.9944,11.875,70.8125,78.535,-2.0625,0.003196585
60581.9969,12.125,71.75,77.98898,-2.3125,0.003170111
60581.9994,12.1875,72.875,77.57043,-2.1875,0.003115605
60582.0019,11.9375,73.625,77.26437,-2.0625,0.00311872
60582.0044,12.125,74.5625,76.97311,-2.375,0.003126506
60582.0069,12.0625,75.5625,76.56059,-1.9375,0.003103147
60582.0094,11.9375,76.1875,75.92865,-2.3125,0.003084459
60582.0119,12.0625,77.0,75.08276,-2.4375,0.003040855
60582.0144,12.1875,77.75,74.14394,-2.625,0.0030611
60582.0169,12.0,78.1875,73.28835,-2.375,0.003056428
60582.0194,12.1875,78.75,72.63844,-2.0625,0.003068886
60582.0219,12.125,79.5,72.16329,-2.125,0.003064214
60582.0244,12.0,79.9375,71.65022,-1.875,0.003050198
60582.0269,12.1875,80.6875,70.77812,-2.125,0.003051756
60582.0294,12.0,81.0625,69.26817,-2.0625,0.003057985
60582.0319,12.0,81.25,67.0393,-1.8125,0.003062657
60582.0344,12.125,81.875,64.28262,-1.5625,0.00302061
60582.0369,12.0,82.0625,61.40356,-1.6875,0.003015938
60582.0394,12.0,82.375,58.84592,-1.75,0.003034625
60582.0419,11.9375,82.9375,56.87892,-1.9375,0.003087574
60582.0444,11.9375,83.0625,55.45551,-2.0,0.003072001
60582.0469,12.0625,83.125,54.223,-1.9375,0.003011266
60582.0494,12.1875,83.375,52.69387,-1.875,0.003043969
60582.0519,11.9375,83.4375,50.50153,-1.9375,0.003064214
60582.0544,12.3125,83.5625,47.6178,-1.875,0.003081344
60582.0569,11.875,83.625,44.41996,-2.1875,0.003081344
60582.0594,11.9375,83.4375,41.56532,-1.9375,0.003056428
60582.0619,12.0,83.5,39.7234,-1.875,0.003047084
60582.0644,12.0625,83.5,39.28687,-1.75,0.003079787
60582.0669,12.0625,83.375,40.19425,-1.8125,0.003082902
60582.0694,12.125,83.3125,41.94628,-2.0625,0.003075115
60582.0719,12.0625,83.125,43.80625,-1.8125,0.003062657
60582.0744,11.875,82.875,45.09092,-2.1875,0.003072001
60582.0769,12.0,82.875,45.42103,-1.6875,0.003090688
60582.0794,11.8125,82.4375,44.8244,-2.0,0.003081344
60582.0819,12.125,82.1875,43.65891,-2.125,0.003056428
60582.0844,12.0,81.8125,42.40632,-2.75,0.003053313
60582.0869,12.0625,81.5,41.44243,-2.5625,0.003057985
60582.0894,12.0625,81.3125,40.88985,-2.0625,0.003073558
60582.0919,11.875,80.8125,40.61056,-2.0625,0.003079787
60582.0944,11.8125,80.3125,40.32486,-2.5,0.003062657
60582.0969,11.875,79.8125,39.78427,-2.3125,0.0030611
60582.0994,11.9375,79.25,38.90799,-2.0625,0.003065771
60582.1019,11.9375,78.75,37.81823,-2.1875,0.0030611
60582.1044,12.0,78.1875,36.76585,-2.1875,0.003059542
60582.1069,11.75,77.5625,35.99221,-2.0,0.003014381
60582.1094,11.9375,76.9375,35.60232,-2.25,0.00303774
60582.1119,11.8125,76.3125,35.51474,-2.25,0.003086016
60582.1144,11.6875,75.625,35.51042,-2.6875,0.003064214
60582.1169,11.8125,74.875,35.35279,-2.5,0.0030611
60582.1194,11.75,74.3125,34.91543,-2.375,0.003023724
60582.1219,11.8125,73.25,34.24951,-1.875,0.003034625
60582.1244,11.8125,72.625,33.55481,-2.125,0.003092246
60582.1269,11.75,71.875,33.06709,-2.1875,0.00309536
60582.1294,11.625,71.125,32.91692,-2.4375,0.003076673
60582.1319,11.9375,70.5,33.03531,-1.875,0.003065771
60582.1344,11.8125,69.875,33.16001,-2.0,0.003056428
60582.1369,11.75,69.0625,32.94867,-2.1875,0.003064214
60582.1394,11.875,68.625,32.15118,-2.375,0.003064214
60582.1419,11.6875,68.1875,30.75822,-2.3125,0.003065771
60582.1444,11.875,67.5,29.04862,-2.75,0.003047084
60582.1469,12.0,67.25,27.501,-2.375,0.003053313
60582.1494,11.875,66.6875,26.60032,-2.1875,0.003092246
60582.1519,11.875,66.3125,26.62359,-2.0625,0.003079787
60582.1544,12.0,65.9375,27.50482,-2.0,0.003070443
60582.1569,11.8125,65.3125,28.84818,-2.1875,0.003081344
60582.1594,11.875,64.875,30.08929,-1.9375,0.003082902
60582.1619,11.875,64.375,30.735,-2.0,0.003067329
60582.1644,12.0,63.875,30.57099,-2.0,0.003070443
60582.1669,11.9375,63.375,29.73986,-2.4375,0.003073558
60582.1694,12.0625,63.0625,28.65492,-2.3125,0.003073558
60582.1719,11.75,62.5625,27.79284,-2.4375,0.003090688
60582.1744,11.9375,61.875,27.46675,-2.5,0.0030611
60582.1769,12.0625,61.75,27.68965,-2.5,0.003051756
60582.1794,11.875,61.1875,28.19,-2.75,0.00305487
60582.1819,12.0625,60.6875,28.56449,-3.0,0.003047084
60582.1844,12.0,60.375,28.48595,-2.9375,0.003070443
60582.1869,11.9375,59.9375,27.85929,-2.6875,0.00305487
60582.1894,11.875,59.5,26.85042,-2.625,0.0030611
60582.1919,11.8125,59.3125,25.78208,-2.9375,0.003045527
60582.1944,12.0,59.0,24.95923,-2.3125,0.003050198
60582.1969,12.0625,58.6875,24.51796,-2.5,0.003084459
60582.1994,11.875,58.3125,24.37501,-2.75,0.003036183
60582.2019,12.0625,58.0,24.2954,-2.75,0.003015938
60582.2044,12.1875,57.6875,24.03266,-3.0,0.00302061
60582.2069,12.0625,57.5,23.46097,-2.75,0.003036183
60582.2094,11.9375,57.125,22.62969,-3.4375,0.003087574
60582.2119,11.9375,57.0625,21.7183,-3.3125,0.003056428
60582.2144,12.1875,56.625,20.92657,-3.0625,0.003039297
60582.2169,12.0625,56.625,20.36713,-2.5625,0.003053313
60582.2194,11.9375,56.1875,20.0194,-2.6875,0.003048641
60582.2219,12.0625,55.8125,19.76444,-2.5625,0.0030611
60582.2244,12.125,55.8125,19.47067,-2.5,0.003047084
60582.2269,12.0625,55.5625,19.07489,-3.0625,0.003051756
60582.2294,12.125,55.4375,18.61062,-2.8125,0.003057985
60582.2319,12.0,55.1875,18.17252,-2.6875,0.003082902
60582.2344,11.9375,54.875,17.84586,-2.6875,0.003081344
60582.2369,12.125,54.625,17.64932,-3.0,0.003100032
60582.2394,12.0,54.5,17.52757,-2.5625,0.003134293
60582.2419,12.0625,54.25,17.39548,-2.5,0.003123392
60582.2444,12.0,54.0,17.20148,-2.75,0.003149866
60582.2469,12.0625,53.8125,16.96525,-3.0,0.003149866
60582.2494,12.1875,53.5625,16.76385,-3.0,0.003137407
60582.2519,12.1875,53.5,16.67497,-2.9375,0.003165439
60582.2544,12.0625,53.25,16.71626,-2.6875,0.003173225
60582.2569,12.0,52.875,16.82516,-3.25,0.003182569
60582.2594,12.125,52.875,16.89546,-3.0,0.003159209
60582.2619,12.1875,52.6875,16.85226,-3.1875,0.003129621
60582.2644,12.0625,52.3125,16.71501,-2.875,0.003129621
60582.2669,12.125,52.3125,16.60342,-2.75,0.003109376
60582.2694,12.25,52.0625,16.67429,-2.375,0.00311872
60582.2719,12.125,51.875,17.02188,-2.5625,0.003059542
60582.2744,12.125,51.6875,17.60259,-2.3125,0.003026839
60582.2769,12.0625,51.625,18.23799,-2.4375,0.003040855
60582.2794,12.0,51.3125,18.70688,-2.8125,0.003045527
60582.2819,12.0625,51.1875,18.88033,-2.875,0.00305487
60582.2844,12.1875,51.3125,18.82223,-2.25,0.003014381
60582.2869,12.125,50.75,18.79034,-2.25,0.002991021
60582.2894,12.0625,50.6875,19.11932,-2.4375,0.002987906
60582.2919,12.0625,50.625,20.04112,-2.3125,0.003003479
60582.2944,12.0625,50.4375,21.53743,-2.1875,0.003022167
60582.2969,12.125,50.25,23.30992,-1.8125,0.003003479
60582.2994,12.0,50.1875,24.89638,-2.1875,0.002961432
60582.3019,12.1875,50.0625,25.8816,-2.1875,0.002958318
60582.3044,12.125,49.9375,26.09698,-2.5,0.002995693
60582.3069,11.9375,49.625,25.70307,-2.6875,0.002995693
60582.3094,12.0,49.5625,25.10766,-2.75,0.002970776
60582.3119,12.0625,49.5625,24.75807,-2.6875,0.002975448
60582.3144,12.0625,49.1875,24.91407,-2.625,0.002986349
60582.3169,12.1875,49.125,25.52036,-2.75,0.002998808
60582.3194,12.0625,49.0625,26.24523,-2.5625,0.003009709
60582.3219,11.9375,49.0625,26.6628,-2.875,0.00298012
60582.3244,11.9375,49.0,26.48048,-3.0,0.002953646
60582.3269,11.875,48.75,25.68903,-2.875,0.002913156
60582.3294,11.75,48.6875,24.55692,-2.5,0.002871109
60582.3319,11.9375,48.5,23.47631,-2.625,0.002908484
60582.3344,12.0,48.5625,22.74937,-2.6875,0.003096917
60582.3369,12.0,48.3125,22.43461,-2.9375,0.003444195
60582.3394,11.8125,48.1875,22.33665,-2.6875,0.00364353
60582.3419,11.8125,48.4375,22.14041,-2.875,0.003346086
60582.3444,11.75,48.125,21.60786,-2.875,0.002706035
60582.3469,11.8125,48.0,20.72163,-2.875,0.002310481
60582.3494,12.0625,47.9375,19.69109,-3.25,0.002389903
60582.3519,11.875,47.9375,18.81892,-3.375,0.002477112
60582.3544,11.6875,47.625,18.30841,-3.3125,0.002578336
60582.3569,11.625,47.625,18.12793,-3.4375,0.002673332
60582.3594,11.8125,47.6875,18.01669,-2.8125,0.002771442
60582.3619,11.75,47.5625,17.63458,-2.375,0.002877338
60582.3644,11.8125,47.5,16.77138,-2.75,0.002930286
60582.3669,11.75,47.375,15.48959,-3.125,0.002938073
60582.3694,11.875,47.25,14.11265,-3.0625,0.002933401
60582.3719,11.6875,47.3125,13.05316,-2.6875,0.002955203
60582.3744,11.5,47.25,12.57446,-3.0625,0.002970776
60582.3769,11.75,47.125,12.62246,-3.1875,0.002986349
60582.3794,11.5625,47.0625,12.83128,-2.6875,0.002972333
60582.3819,11.5625,46.8125,12.7135,-2.75,0.002928729
60582.3844,11.625,46.875,11.94026,-3.0625,0.002944302
60582.3869,11.6875,46.875,10.55824,-2.875,0.002948974
60582.3894,11.5625,46.8125,9.01724,-2.75,0.002966104
60582.3919,11.5,46.75,7.979126,-2.8125,0.002972333
60582.3944,11.6875,46.5,7.998296,-2.875,0.002916271
60582.3969,11.625,46.4375,9.238236,-3.125,0.002906927
60582.3994,11.625,46.375,11.37776,-2.8125,0.002917828
60582.4019,11.625,46.3125,13.76516,-2.6875,0.002928729
60582.4044,11.75,46.25,15.75007,-2.875,0.002925614
60582.4069,11.6875,46.1875,17.0261,-2.6875,0.00288201
60582.4094,11.625,46.0,17.80864,-2.8125,0.002886682
60582.4119,11.5,45.9375,18.75247,-2.4375,0.002914713
60582.4144,11.75,45.9375,20.64574,-2.5625,0.002903812
60582.4169,11.625,45.8125,24.03051,-2.75,0.002889796
60582.4194,11.625,45.9375,28.93568,-2.5,0.002885125
60582.4219,11.8125,45.6875,34.85072,-2.4375,0.002869552
60582.4244,11.625,45.6875,40.94695,-2.9375,0.00285865
60582.4269,11.8125,45.625,46.43299,-2.5625,0.002866437
60582.4294,11.6875,45.625,50.87024,-2.8125,0.002838406
60582.4319,11.625,45.4375,54.30305,-2.9375,0.002839963
60582.4344,11.75,45.5,57.15585,-3.5625,0.00288201
60582.4369,11.75,45.3125,59.96531,-3.5,0.002872666
60582.4394,11.5,45.1875,63.09174,-3.3125,0.002847749
60582.4419,11.75,45.0,66.54801,-3.5625,0.002830619
60582.4444,11.75,45.25,70.01707,-3.5,0.00284152
60582.4469,11.6875,45.0625,73.0293,-3.6875,0.002866437
60582.4494,11.5625,44.875,75.19509,-3.6875,0.002847749
60582.4519,11.6875,44.75,76.37647,-3.5,0.002825947
60582.4544,11.625,44.75,76.72498,-3.125,0.002808817
60582.4569,11.5625,44.5625,76.58706,-3.4375,0.002839963
60582.4594,11.4375,44.5625,76.34265,-3.625,0.002866437
60582.4619,11.4375,44.625,76.26315,-3.0625,0.002843077
60582.4644,11.4375,44.4375,76.45004,-2.875,0.002825947
60582.4669,11.5625,44.375,76.86279,-3.0,0.002804145
60582.4694,11.625,44.5,77.39677,-2.8125,0.002811931
60582.4719,11.4375,44.125,77.95978,-2.6875,0.002860208
60582.4744,11.3125,44.0,78.50665,-2.9375,0.002843077
60582.4769,11.625,44.1875,79.02768,-2.875,0.002821275
60582.4794,11.375,44.0,79.51714,-2.875,0.002797916
60582.4819,11.375,44.0,79.95197,-2.1875,0.002818161
60582.4844,11.625,44.1875,80.30048,-2.4375,0.00282439
60582.4869,11.5,44.125,80.55322,-2.5625,0.002822833
60582.4894,11.375,44.1875,80.74982,-2.3125,0.002829062
60582.4919,11.5625,44.25,80.97759,-2.625,0.002816603
60582.4944,11.5625,44.625,81.33549,-2.625,0.002815046
60582.4969,11.375,44.8125,81.88102,-2.6875,0.00282439
60582.4994,11.5,45.25,82.59022,-2.6875,0.002843077
60582.5019,11.6875,45.875,83.35651,-2.5,0.002827504
60582.5044,11.6875,46.5625,84.03201,-2.0,0.002813489
60582.5069,11.5,47.6875,84.49125,-2.0625,0.002844635
60582.5094,11.5625,49.0,84.68574,-2.125,0.002863322
60582.5119,11.6875,50.375,84.66203,-2.125,0.00285865
60582.5144,11.8125,51.5,84.5349,-2.5625,0.002852421
60582.5169,11.625,52.75,84.4321,-2.625,0.002867994
60582.5194,11.75,54.0,84.43631,-2.5625,0.002905369
60582.5219,11.8125,54.9375,84.55143,-2.3125,0.002889796
60582.5244,11.8125,56.125,84.70574,-2.3125,0.00289914
60582.5269,11.625,57.125,84.78643,-2.4375,0.002920942
60582.5294,11.5625,58.0,84.68807,-2.3125,0.002970776
60582.5319,11.875,58.75,84.35452,-2.25,0.003043969
60582.5344,11.6875,59.6875,83.7991,-2.4375,0.003051756
60582.5369,11.9375,60.625,83.09863,-2.4375,0.003092246
60582.5394,11.875,61.6875,82.36597,-1.9375,0.00311872
60582.5419,11.8125,62.5,81.7114,-2.3125,0.003177897
60582.5444,11.9375,63.5,81.20432,-2.5625,0.003252647
60582.5469,11.875,64.6875,80.84832,-2.125,0.003247976
60582.5494,11.875,65.6875,80.57832,-1.8125,0.003227731
60582.5519,12.0,66.9375,80.28519,-2.0,0.003237074
60582.5544,11.8125,67.875,79.86192,-1.75,0.003265106
60582.5569,11.9375,69.0625,79.25371,-2.1875,0.003283794
60582.5594,11.875,69.9375,78.48888,-2.0,0.00323396
60582.5619,11.6875,70.9375,77.67332,-1.875,0.003204371
60582.5644,11.9375,72.0625,76.94469,-2.0,0.003185684
60582.5669,11.9375,73.0625,76.40411,-2.1875,0.003198142
60582.5694,12.0625,73.9375,76.05925,-2.875,0.003195027
60582.5719,12.0625,74.875,75.81065,-3.0625,0.00315298
60582.5744,11.75,75.5625,75.49537,-3.0625,0.003154538
60582.5769,11.9375,76.625,74.97044,-2.9375,0.003148308
60582.5794,11.75,77.5,74.19401,-2.5,0.003140522
60582.5819,11.9375,77.9375,73.25694,-2.375,0.003123392
60582.5844,12.0625,78.625,72.34025,-1.9375,0.003101589
60582.5869,11.9375,79.375,71.61296,-2.5,0.003132735
60582.5894,11.75,79.875,71.12099,-2.0,0.003132735
60582.5919,11.875,80.4375,70.72997,-2.3125,0.003131178
60582.5944,11.875,81.0,70.16196,-2.25,0.003104704
60582.5969,11.8125,81.4375,69.11846,-2.3125,0.003098475
60582.5994,11.8125,81.9375,67.43259,-2.375,0.00311872
60582.6019,11.8125,82.0625,65.17137,-2.0625,0.003121834
60582.6044,12.0,82.4375,62.62791,-1.9375,0.003131178
60582.6069,11.9375,82.75,60.19705,-1.8125,0.003110933
60582.6094,11.75,83.0,58.18968,-2.0,0.003109376
60582.6119,11.875,83.1875,56.67819,-2.4375,0.003117162
60582.6144,11.6875,83.25,55.45546,-2.6875,0.00311872
60582.6169,11.8125,83.3125,54.13657,-2.75,0.003142079
60582.6194,11.9375,83.5625,52.36054,-2.0625,0.003093803
60582.6219,11.875,83.75,49.99593,-2.0,0.003079787
60582.6244,11.8125,83.625,47.24786,-2.625,0.003096917
60582.6269,11.8125,83.8125,44.60775,-2.1875,0.003134293
60582.6294,11.6875,83.75,42.66171,-2.5,0.003145194
60582.6319,11.9375,83.625,41.84171,-2.8125,0.003084459
60582.6344,11.9375,83.625,42.23195,-2.625,0.003082902
60582.6369,11.9375,83.625,43.51755,-2.375,0.003121834
60582.6394,11.9375,83.3125,45.09822,-2.3125,0.00313585
60582.6419,11.75,83.1875,46.31578,-2.3125,0.003131178
60582.6444,11.875,83.0,46.69559,-2.6875,0.003090688
60582.6469,11.75,82.875,46.10148,-2.5,0.003089131
60582.6494,11.6875,82.4375,44.74644,-2.75,0.003109376
60582.6519,11.875,82.3125,43.06536,-2.625,0.003110933
60582.6544,11.8125,81.875,41.51493,-2.9375,0.003117162
60582.6569,11.75,81.625,40.38943,-3.0,0.003076673
60582.6594,11.6875,81.125,39.72656,-2.8125,0.003101589
60582.6619,11.8125,80.6875,39.33391,-2.9375,0.003115605
60582.6644,11.75,80.1875,38.91198,-2.6875,0.003126506
60582.6669,11.6875,79.625,38.21185,-2.3125,0.003120277
60582.6694,11.8125,79.25,37.15583,-2.625,0.003109376
60582.6719,11.8125,78.625,35.87018,-2.4375,0.00311872
60582.6744,11.75,77.9375,34.6202,-2.1875,0.003098475
60582.6769,11.75,77.0625,33.68154,-2.625,0.00309536
60582.6794,11.625,76.4375,33.20694,-2.1875,0.003096917
60582.6819,11.875,75.9375,33.15244,-2.4375,0.00309536
60582.6844,11.875,75.25,33.29681,-2.4375,0.003106261
60582.6869,11.875,74.375,33.34693,-2.625,0.003096917
60582.6894,11.8125,73.6875,33.07983,-2.5625,0.003090688
60582.6919,11.75,72.8125,32.45198,-2.5625,0.003079787
60582.6944,11.8125,72.0,31.6186,-2.5,0.003089131
60582.6969,11.8125,71.375,30.84926,-2.5625,0.003114048
60582.6994,11.6875,70.6875,30.377,-2.25,0.003100032
60582.7019,11.875,70.0625,30.25682,-2.6875,0.003087574
60582.7044,11.8125,69.375,30.31122,-3.0625,0.003065771
60582.7069,11.75,69.0,30.20098,-3.125,0.00307823
60582.7094,11.75,68.375,29.59693,-3.0625,0.003098475
60582.7119,11.6875,67.8125,28.37148,-2.9375,0.00307823
60582.7144,11.8125,67.375,26.70968,-3.1875,0.003075115
60582.7169,12.0625,67.125,25.07151,-2.875,0.003026839
60582.7194,11.9375,66.5,24.00864,-3.0625,0.003029954
60582.7219,11.8125,66.0625,23.91408,-3.0,0.003070443
60582.7244,11.9375,65.5,24.82465,-2.9375,0.003067329
60582.7269,11.875,65.125,26.37726,-2.9375,0.003070443
60582.7294,12.0,64.5625,27.94959,-3.0,0.003048641
60582.7319,12.0,64.0,28.92467,-3.5,0.003031511
60582.7344,12.1875,63.8125,28.95602,-3.25,0.003050198
60582.7369,12.125,63.125,28.10787,-3.1875,0.003062657
60582.7394,11.875,62.6875,26.80353,-3.3125,0.003075115
60582.7419,11.9375,62.25,25.61066,-3.3125,0.003062657
60582.7444,12.125,61.875,24.97088,-3.25,0.003042412
60582.7469,12.0,61.625,25.00511,-3.125,0.003047084
60582.7494,12.0625,61.0625,25.48472,-3.125,0.003050198
60582.7519,12.125,60.75,25.97221,-3.0,0.00303774
60582.7544,12.125,60.375,26.0517,-2.1875,0.003028396
60582.7569,12.0625,60.0625,25.52956,-2.3125,0.003039297
60582.7594,12.125,59.75,24.50921,-2.625,0.003064214
60582.7619,12.0625,59.375,23.31322,-2.4375,0.003067329
60582.7644,12.1875,59.25,22.30469,-2.6875,0.003051756
60582.7669,12.1875,58.8125,21.7062,-2.9375,0.003045527
60582.7694,12.0625,58.5,21.50657,-3.0625,0.003064214
60582.7719,12.125,58.25,21.49297,-2.6875,0.003053313
60582.7744,12.0,58.0625,21.37842,-3.0,0.003011266
60582.7769,12.375,57.8125,20.95087,-2.875,0.003029954
60582.7794,12.125,57.6875,20.1682,-2.625,0.003045527
60582.7819,12.3125,57.375,19.15909,-2.5625,0.003073558
60582.7844,12.4375,57.0,18.14213,-2.625,0.003040855
60582.7869,12.0,56.875,17.3141,-2.5,0.003014381
60582.7894,12.1875,56.625,16.76552,-2.8125,0.003008151
60582.7919,12.375,56.5,16.45856,-3.0625,0.003045527
60582.7944,12.1875,56.25,16.26666,-2.6875,0.003081344
60582.7969,12.1875,56.0,16.04609,-2.6875,0.003070443
60582.7994,12.1875,55.75,15.70164,-2.6875,0.003068886
60582.8019,12.3125,55.5,15.2195,-2.625,0.003070443
60582.8044,12.375,55.25,14.66103,-2.0625,0.00311249
60582.8069,12.1875,55.125,14.1285,-1.6875,0.003148308
60582.8094,12.25,54.9375,13.72087,-2.0625,0.003117162
60582.8119,12.1875,54.75,13.49632,-2.0625,0.003121834
60582.8144,12.3125,54.4375,13.4508,-2.125,0.003123392
60582.8169,12.375,54.3125,13.5178,-2.0625,0.003132735
60582.8194,12.1875,54.125,13.59036,-2.5625,0.003171668
60582.8219,12.3125,53.875,13.56201,-2.1875,0.003156095
60582.8244,12.25,53.5625,13.3748,-2.5,0.003143636
60582.8269,12.4375,53.625,13.05286,-2.625,0.003123392
60582.8294,12.5,53.375,12.70347,-2.75,0.003129621
60582.8319,12.25,53.1875,12.47467,-2.9375,0.003126506
60582.8344,12.4375,52.9375,12.48139,-2.9375,0.003072001
60582.8369,12.5625,52.875,12.73575,-2.5625,0.003056428
60582.8394,12.25,52.5625,13.121,-2.875,0.003028396
60582.8419,12.1875,52.5,13.43564,-2.625,0.003019052
60582.8444,12.375,52.25,13.49859,-2.6875,0.003003479
60582.8469,12.375,52.125,13.26711,-2.6875,0.002989464
60582.8494,12.375,52.0,12.90214,-2.0,0.00299725
60582.8519,12.375,51.75,12.73103,-2.125,0.002975448
60582.8544,12.25,51.625,13.10836,-2.4375,0.002995693
60582.8569,12.125,51.4375,14.23449,-2.75,0.002986349
60582.8594,12.5,51.3125,16.02008,-3.125,0.002944302
60582.8619,12.3125,51.1875,18.07876,-2.75,0.002964547
60582.8644,12.4375,51.1875,19.8687,-2.5,0.002978563
60582.8669,12.4375,51.0,20.92579,-3.0625,0.002987906
60582.8694,12.4375,50.8125,21.07989,-2.6875,0.002942745
60582.8719,12.5,50.625,20.54066,-2.875,0.002917828
60582.8744,12.4375,50.375,19.80153,-2.75,0.002927172
60582.8769,12.1875,50.375,19.40208,-3.1875,0.002964547
60582.8794,12.5625,50.3125,19.66352,-2.75,0.002981677
60582.8819,12.5,50.1875,20.53072,-2.125,0.002941187
60582.8844,12.5,49.9375,21.60299,-2.6875,0.002910041
60582.8869,12.75,50.125,22.3389,-2.875,0.002917828
60582.8894,12.3125,49.6875,22.3305,-2.5625,0.002964547
60582.8919,12.25,49.5625,21.50537,-2.75,0.002941187
60582.8944,12.4375,49.625,20.15298,-2.5625,0.002819718
60582.8969,12.375,49.4375,18.7646,-2.375,0.002797916
60582.8994,12.4375,49.1875,17.77475,-2.25,0.002905369
60582.9019,12.4375,49.25,17.34423,-2.3125,0.003163881
60582.9044,12.4375,49.25,17.29933,-2.875,0.003472227
60582.9069,12.25,49.125,17.25565,-2.5625,0.003539191
60582.9094,12.125,49.0625,16.85315,-2.75,0.003120277
60582.9119,12.1875,48.9375,15.96817,-2.5625,0.002486456
60582.9144,12.25,48.6875,14.78319,-2.625,0.002288679
60582.9169,12.4375,48.75,13.67573,-2.125,0.002389903
60582.9194,12.25,48.6875,12.99115,-2.5,0.002447523
60582.9219,12.1875,48.625,12.83132,-2.3125,0.002579894
60582.9244,12.25,48.4375,12.98303,-2.4375,0.00268579
60582.9269,12.4375,48.5625,13.03118,-2.875,0.002760541
60582.9294,12.4375,48.375,12.5954,-2.5,0.002810374
60582.9319,12.25,48.5,11.5569,-1.625,0.002811931
60582.9344,12.125,48.25,10.14097,-2.1875,0.002855536
60582.9369,12.1875,48.1875,8.802711,-1.8125,0.002872666
60582.9394,12.3125,48.375,7.970761,-1.8125,0.002836848
60582.9419,12.3125,47.9375,7.793592,-2.25,0.002830619
60582.9444,12.25,48.125,8.033607,-2.125,0.002861765
60582.9469,12.125,47.9375,8.180649,-1.6875,0.002891354
60582.9494,12.0,47.8125,7.732784,-2.0625,0.002911599
60582.9519,12.1875,47.75,6.494726,-2.25,0.002897583
60582.9544,12.4375,47.6875,4.727895,-1.8125,0.002874223
60582.9569,12.25,47.6875,3.058471,-1.9375,0.00288201
60582.9594,12.3125,47.5625,2.180165,-2.0625,0.002888239
60582.9619,12.375,47.5,2.502432,-2.4375,0.002891354
60582.9644,12.3125,47.625,3.93162,-2.125,0.002896026
60582.9669,12.3125,47.3125,5.908528,-2.375,0.002846192
60582.9694,12.375,47.25,7.692541,-2.4375,0.002832176
60582.9719,12.5,47.1875,8.751265,-2.375,0.002844635
60582.9744,12.25,47.0625,9.054467,-2.0,0.00285865
60582.9769,12.375,47.0625,9.117068,-1.8125,0.002878895
60582.9794,12.3125,46.9375,9.764588,-1.9375,0.002855536
60582.9819,12.4375,46.875,11.73789,-2.0625,0.002863322
60582.9844,12.4375,46.9375,15.33679,-1.9375,0.002844635
60582.9869,12.3125,46.625,20.28127,-2.1875,0.002861765
60582.9894,12.6875,46.75,25.85438,-1.9375,0.002861765
60582.9919,12.375,46.75,31.24582,-2.1875,0.002804145
60582.9944,12.5625,46.625,35.9153,-1.8125,0.002805702
60582.9969,12.3125,46.375,39.79152,-1.75,0.002827504
60582.9994,12.5625,46.5,43.21732,-1.9375,0.002832176
60583.0019,12.5,46.4375,46.68653,-1.8125,0.002827504
60583.0044,12.5,46.3125,50.52478,-2.0,0.002833734
60583.0069,12.4375,46.1875,54.68795,-1.875,0.00284152
60583.0094,12.5,46.1875,58.78051,-2.0,0.002827504
60583.0119,12.375,46.0,62.26929,-1.9375,0.002822833
60583.0144,12.4375,46.0,64.76827,-2.0,0.002816603
60583.0169,12.5,45.9375,66.23313,-2.3125,0.002821275
60583.0194,12.375,46.0,66.96579,-2.625,0.002825947
60583.0219,12.3125,45.75,67.43771,-2.8125,0.002816603
60583.0244,12.25,45.75,68.03901,-2.5,0.00280103
60583.0269,12.375,45.5625,68.89552,-2.4375,0.0027839
60583.0294,12.1875,45.5,69.84898,-2.3125,0.002785457
60583.0319,12.375,45.625,70.60001,-2.3125,0.002808817
60583.0344,12.25,45.375,70.92245,-2.625,0.002787015
60583.0369,12.4375,45.25,70.81971,-2.1875,0.002757426
60583.0394,12.375,45.1875,70.53674,-2.0625,0.002758983
60583.0419,12.3125,45.125,70.42567,-2.625,0.002794801
60583.0444,12.375,45.125,70.74744,-2.5625,0.002810374
60583.0469,12.4375,45.1875,71.52511,-2.75,0.002790129
60583.0494,12.3125,45.25,72.5298,-3.0,0.002782343
60583.0519,12.375,45.125,73.40881,-2.625,0.00276677
60583.0544,12.5,45.375,73.87971,-2.625,0.002787015
60583.0569,12.25,45.3125,73.88121,-2.5,0.002822833
60583.0594,12.6875,45.5,73.60049,-2.375,0.00282439
60583.0619,12.6875,45.875,73.36697,-2.375,0.002805702
60583.0644,12.4375,46.0,73.47542,-2.875,0.002782343
60583.0669,12.625,46.625,74.03707,-2.9375,0.002782343
60583.0694,12.4375,47.25,74.93291,-3.125,0.002799473
60583.0719,12.5625,48.1875,75.88738,-2.875,0.002805702
60583.0744,12.625,49.3125,76.61395,-2.3125,0.00282439
60583.0769,12.625,50.5625,76.94979,-1.8125,0.002810374
60583.0794,12.5625,51.875,76.91234,-2.1875,0.002822833
60583.0819,12.8125,53.1875,76.65856,-2.75,0.002850864
60583.0844,12.6875,54.5,76.38051,-2.5,0.002852421
60583.0869,12.8125,55.5625,76.20147,-2.6875,0.002871109
60583.0894,12.8125,56.6875,76.12749,-2.5,0.002878895
60583.0919,12.9375,57.6875,76.07022,-2.6875,0.002910041
60583.0944,12.8125,58.75,75.91679,-2.3125,0.002948974
60583.0969,12.875,59.5625,75.59943,-2.6875,0.002983235
60583.0994,12.9375,60.5,75.12612,-2.625,0.002992578
60583.1019,13.125,61.375,74.56211,-2.3125,0.002998808
60583.1044,12.9375,62.1875,73.98271,-1.9375,0.003051756
60583.1069,13.0625,63.375,73.43047,-2.0625,0.003093803
60583.1094,13.1875,64.3125,72.90146,-2.5625,0.003140522
60583.1119,13.125,65.3125,72.36176,-2.375,0.003185684
60583.1144,13.0,66.4375,71.7774,-2.375,0.003213715
60583.1169,13.3125,67.5,71.13531,-2.625,0.003257319
60583.1194,13.25,68.75,70.44483,-2.5625,0.003244861
60583.1219,13.1875,69.8125,69.72532,-2.4375,0.003218387
60583.1244,13.1875,70.9375,68.99417,-2.125,0.003223059
60583.1269,13.25,72.0,68.26505,-2.0,0.00325109
60583.1294,13.1875,73.125,67.5554,-2.3125,0.003246418
60583.1319,13.3125,73.9375,66.8905,-2.25,0.00321683
60583.1344,13.25,74.9375,66.29275,-2.6875,0.003182569
60583.1369,13.4375,75.875,65.75858,-2.5625,0.003163881
60583.1394,13.3125,76.875,65.23832,-2.5625,0.003202814
60583.1419,13.25,77.625,64.63963,-2.0625,0.003201257
60583.1444,13.375,78.4375,63.86496,-1.8125,0.003148308
60583.1469,13.5625,79.25,62.86815,-2.1875,0.003128063
60583.1494,13.375,79.8125,61.69719,-2.5,0.003148308
60583.1519,13.375,80.375,60.4889,-2.5625,0.003179454
60583.1544,13.5625,81.3125,59.40419,-2.5625,0.003182569
60583.1569,13.375,81.625,58.52931,-2.875,0.00315298
60583.1594,13.375,82.25,57.79662,-2.75,0.003156095
60583.1619,13.625,82.9375,56.97843,-2.5625,0.003166996
60583.1644,13.5,83.25,55.77315,-2.25,0.003157652
60583.1669,13.5,83.625,53.95036,-2.5,0.003151423
60583.1694,13.5625,84.0,51.48246,-2.5,0.003149866
60583.1719,13.75,84.4375,48.58574,-2.5,0.003165439
60583.1744,13.5,84.625,45.63511,-2.8125,0.003181012
60583.1769,13.6875,85.0625,42.98398,-2.625,0.003202814
60583.1794,13.5,85.3125,40.77888,-2.4375,0.003191913
60583.1819,13.5,85.25,38.87207,-2.8125,0.003149866
60583.1844,13.6875,85.625,36.89303,-2.8125,0.003168553
60583.1869,13.625,85.75,34.45733,-2.5,0.003191913
60583.1894,13.6875,85.75,31.41449,-2.3125,0.003209043
60583.1919,13.625,85.9375,28.00341,-2.125,0.003174782
60583.1944,13.625,85.9375,24.8207,-2.4375,0.003191913
60583.1969,13.6875,85.9375,22.5964,-2.0,0.003209043
60583.1994,13.8125,85.75,21.87161,-1.6875,0.003195027
60583.2019,13.6875,85.875,22.72944,-2.0625,0.003218387
60583.2044,13.8125,85.6875,24.71444,-2.3125,0.003227731
60583.2069,13.6875,85.3125,26.99036,-2.0,0.003198142
60583.2094,13.75,85.1875,28.66968,-2.125,0.003227731
60583.2119,13.5625,85.0,29.16631,-1.75,0.003240189
60583.2144,13.5625,84.8125,28.40912,-2.0,0.003238632
60583.2169,13.6875,84.625,26.82111,-2.1875,0.003201257
60583.2194,13.625,84.4375,25.08389,-1.9375,0.003204371
60583.2219,13.625,83.9375,23.80733,-1.5625,0.003213715
60583.2244,13.6875,83.5,23.26534,-1.375,0.003240189
60583.2269,13.625,83.1875,23.31768,-1.3125,0.003282236
60583.2294,13.5,82.875,23.53916,-1.5625,0.003237074
60583.2319,13.625,82.4375,23.47472,-1.8125,0.003212158
60583.2344,13.875,81.875,22.88121,-1.5625,0.003255762
60583.2369,13.875,81.3125,21.83384,-1.625,0.003280679
60583.2394,13.75,80.6875,20.65458,-1.375,0.003266663
60583.2419,13.6875,79.875,19.71498,-1.6875,0.003247976
60583.2444,13.625,79.375,19.22957,-2.0,0.003246418
60583.2469,13.6875,78.6875,19.1542,-2.0,0.003268221
60583.2494,13.625,77.9375,19.23622,-2.1875,0.003279122
60583.2519,13.875,77.3125,19.17873,-2.375,0.003260434
60583.2544,13.8125,76.5,18.818,-2.3125,0.003257319
60583.2569,13.625,75.875,18.20996,-2.5,0.003269778
60583.2594,13.75,75.0625,17.57842,-2.1875,0.003290023
60583.2619,13.625,74.25,17.16019,-1.9375,0.003280679
60583.2644,13.8125,73.625,17.04203,-2.0,0.003254205
60583.2669,13.625,72.6875,17.09052,-1.9375,0.00325109
60583.2694,13.75,72.0,17.02007,-1.5625,0.003255762
60583.2719,13.875,71.4375,16.56298,-1.625,0.003258877
60583.2744,13.75,70.8125,15.64203,-1.8125,0.003255762
60583.2769,13.625,70.3125,14.44001,-1.875,0.00325109
60583.2794,13.75,69.6875,13.31643,-1.6875,0.003244861
60583.2819,13.8125,69.1875,12.60989,-1.9375,0.003261991
60583.2844,13.75,68.875,12.43427,-2.0,0.003268221
60583.2869,13.8125,68.4375,12.58977,-2.125,0.003241746
60583.2894,13.625,67.9375,12.65138,-2.0625,0.003226173
60583.2919,13.6875,67.375,12.20156,-1.6875,0.003224616
60583.2944,13.6875,66.875,11.08647,-1.5625,0.003261991
60583.2969,13.75,66.375,9.554173,-2.0625,0.003246418
60583.2994,13.75,65.9375,8.186206,-1.8125,0.003249533
60583.3019,13.75,65.5,7.639585,-2.25,0.003227731
60583.3044,13.75,65.0,8.320129,-1.6875,0.003243304
60583.3069,13.6875,64.4375,10.15159,-1.9375,0.003268221
60583.3094,13.75,63.9375,12.56464,-1.875,0.003260434
60583.3119,13.625,63.625,14.72347,-2.375,0.003257319
60583.3144,13.8125,63.0625,15.88667,-1.875,0.003249533
60583.3169,13.6875,62.75,15.73155,-1.4375,0.003252647
60583.3194,13.875,62.375,14.48505,-1.625,0.003257319
60583.3219,13.6875,61.9375,12.79986,-1.6875,0.003254205
60583.3244,13.75,61.625,11.43908,-1.875,0.003257319
60583.3269,13.6875,61.5,10.92564,-1.8125,0.00321683
60583.3294,13.8125,61.0625,11.32235,-2.125,0.003223059
60583.3319,13.75,60.6875,12.2422,-1.4375,0.003269778
60583.3344,13.75,60.375,13.06879,-1.5625,0.00327445
60583.3369,13.8125,60.0625,13.26678,-1.6875,0.003260434
60583.3394,13.75,59.875,12.62748,-1.75,0.003257319
60583.3419,13.6875,59.5625,11.33654,-1.875,0.003254205
60583.3444,13.8125,59.3125,9.845195,-1.6875,0.003258877
60583.3469,13.9375,59.0,8.628002,-1.6875,0.003265106
60583.3494,13.875,58.875,7.955787,-1.75,0.003261991
60583.3519,13.8125,58.5,7.793437,-1.3125,0.003257319
60583.3544,13.75,58.375,7.859556,-1.75,0.003268221
60583.3569,13.875,58.125,7.800155,-1.5625,0.003265106
60583.3594,13.8125,58.0,7.376287,-1.5625,0.003247976
60583.3619,13.9375,57.75,6.570509,-1.0625,0.003249533
60583.3644,14.1875,57.4375,5.568622,-1.375,0.003268221
60583.3669,14.0,57.375,4.641793,-1.4375,0.003310268
60583.3694,13.875,56.9375,4.001292,-1.4375,0.00330871
60583.3719,14.0625,56.875,3.702254,-2.125,0.003305596
60583.3744,13.9375,56.6875,3.63782,-2.0,0.003283794
60583.3769,14.0625,56.1875,3.613684,-1.875,0.003304038
60583.3794,14.1875,56.25,3.453632,-1.6875,0.00336633
60583.3819,14.1875,55.9375,3.079396,-1.9375,0.003333627
60583.3844,14.125,55.6875,2.53037,-2.1875,0.00330871
60583.3869,14.375,55.625,1.923712,-1.9375,0.003311825
60583.3894,14.25,55.375,1.385765,-1.875,0.003346086
60583.3919,14.1875,55.125,0.9942112,-2.1875,0.003394362
60583.3944,14.1875,55.0625,0.7545618,-2.1875,0.003356987
60583.3969,14.125,54.75,0.6136503,-2.125,0.003313382
60583.3994,14.1875,54.5625,0.4966843,-1.75,0.003288465
60583.4019,14.375,54.4375,0.3436468,-1.8125,0.003297809
60583.4044,14.375,54.375,0.1329451,-1.9375,0.003307153
60583.4069,14.25,54.0625,-0.1137337,-2.25,0.003257319
60583.4094,14.3125,54.0,-0.3418781,-1.5625,0.003237074
60583.4119,14.1875,53.75,-0.4827058,-2.1875,0.003227731
60583.4144,14.3125,53.5625,-0.4752513,-2.125,0.003237074
60583.4169,14.4375,53.4375,-0.287067,-1.625,0.003226173
60583.4194,14.3125,53.1875,0.07086571,-1.6875,0.003223059
60583.4219,14.1875,53.0,0.5405682,-1.625,0.003212158
60583.4244,14.4375,53.125,1.032902,-1.8125,0.00319347
60583.4269,14.375,52.875,1.460336,-2.375,0.003218387
60583.4294,14.1875,52.625,1.775251,-2.4375,0.003212158
60583.4319,14.4375,52.4375,1.995355,-2.0,0.003209043
60583.4344,14.1875,52.25,2.199038,-2.1875,0.0032106
60583.4369,14.375,52.25,2.488144,-2.125,0.003188798
60583.4394,14.3125,52.0625,2.92735,-1.9375,0.003205928
60583.4419,14.3125,51.875,3.492935,-1.875,0.003199699
60583.4444,14.3125,51.625,4.062047,-2.0625,0.003198142
60583.4469,14.25,51.75,4.455054,-2.4375,0.003215272
60583.4494,14.375,51.4375,4.517023,-2.1875,0.003195027
60583.4519,14.375,51.25,4.200203,-2.5,0.003205928
60583.4544,14.4375,51.3125,3.604454,-1.875,0.003195027
60583.4569,14.25,51.0,2.948596,-2.1875,0.003174782
60583.4594,14.125,50.875,2.478075,-1.6875,0.003173225
60583.4619,14.1875,51.0,2.348199,-1.5625,0.003134293
60583.4644,14.3125,50.875,2.539408,-1.9375,0.003134293
60583.4669,14.125,50.875,2.850197,-2.0625,0.003191913
60583.4694,14.3125,50.5,2.978921,-1.75,0.003347643
60583.4719,14.25,50.375,2.662647,-2.0,0.003531404
60583.4744,14.3125,50.375,1.810382,-1.9375,0.003645087
60583.4769,14.0625,50.1875,0.5657561,-1.875,0.003408378
60583.4794,14.125,50.1875,-0.7367057,-2.125,0.002878895
60583.4819,14.3125,50.125,-1.70995,-1.9375,0.002579894
60583.4844,14.3125,50.125,-2.088741,-1.8125,0.002642186
60583.4869,14.25,50.0625,-1.860289,-1.9375,0.002760541
60583.4894,14.1875,49.9375,-1.285572,-1.625,0.002872666
60583.4919,14.1875,49.75,-0.7928003,-1.9375,0.002942745
60583.4944,14.0625,49.6875,-0.7836859,-1.9375,0.003040855
60583.4969,14.0625,49.625,-1.439314,-2.125,0.003131178
60583.4994,14.3125,49.6875,-2.619002,-1.875,0.003187241
60583.5019,14.3125,49.5625,-3.910162,-1.25,0.003204371
60583.5044,14.25,49.4375,-4.81743,-1.3125,0.003190355
60583.5069,14.1875,49.25,-5.008694,-2.0,0.003201257
60583.5094,14.125,49.25,-4.501423,-1.8125,0.003205928
60583.5119,14.0,49.25,-3.690592,-1.6875,0.003219944
60583.5144,14.1875,49.1875,-3.184316,-1.75,0.003202814
60583.5169,14.3125,49.125,-3.513199,-1.5625,0.003198142
60583.5194,14.0625,49.0625,-4.845697,-1.4375,0.003227731
60583.5219,14.125,48.8125,-6.853312,-2.0,0.003213715
60583.5244,14.125,48.8125,-8.809772,-1.6875,0.00321683
60583.5269,14.0625,48.625,-9.895956,-1.75,0.003207486
60583.5294,14.125,48.5625,-9.576306,-1.625,0.003199699
60583.5319,14.3125,48.6875,-7.865426,-1.5,0.003219944
60583.5344,14.25,48.4375,-5.342453,-1.5625,0.003209043
60583.5369,14.25,48.25,-2.88713,-1.6875,0.003221501
60583.5394,14.1875,48.3125,-1.250947,-2.0,0.00319347
60583.5419,14.1875,48.375,-0.6682907,-2.0,0.003209043
60583.5444,14.0625,48.0625,-0.7061568,-1.6875,0.003219944
60583.5469,14.125,47.9375,-0.4421674,-1.4375,0.003213715
60583.5494,14.3125,48.0,1.100678,-1.625,0.00321683
60583.5519,14.1875,47.875,4.468697,-1.6875,0.003160767
60583.5544,14.1875,47.75,9.483085,-2.1875,0.00315298
60583.5569,14.0625,47.6875,15.29182,-2.5,0.003182569
60583.5594,14.1875,47.625,20.7541,-2.1875,0.003170111
60583.5619,14.125,47.6875,24.97449,-2.0,0.00317634
60583.5644,14.1875,47.4375,27.72335,-2.125,0.003134293
60583.5669,14.0,47.5625,29.53145,-1.875,0.003110933
60583.5694,13.875,47.3125,31.40743,-2.0,0.003149866
60583.5719,14.0,47.25,34.31523,-2.5,0.003156095
60583.5744,14.0,47.3125,38.67054,-2.8125,0.003149866
60583.5769,14.0,47.125,44.10962,-2.4375,0.003114048
60583.5794,14.0,47.0625,49.64373,-2.3125,0.003070443
60583.5819,14.125,47.0,54.12097,-3.0625,0.003082902
60583.5844,13.9375,46.875,56.76417,-2.375,0.003103147
60583.5869,13.8125,46.6875,57.51922,-2.625,0.003082902
60583.5894,13.75,46.6875,57.0519,-2.1875,0.003036183
60583.5919,13.8125,46.625,56.40872,-2.6875,0.00303774
60583.5944,13.75,46.375,56.52237,-3.0625,0.003067329
60583.5969,13.875,46.375,57.80995,-2.75,0.003073558
60583.5994,13.6875,46.3125,60.05091,-2.75,0.003031511
60583.6019,13.8125,46.0,62.58008,-2.75,0.003022167
60583.6044,13.875,46.0625,64.67143,-3.0,0.003039297
60583.6069,13.5625,46.0625,65.90294,-2.4375,0.003034625
60583.6094,13.6875,45.9375,66.32453,-2.125,0.003019052
60583.6119,13.5625,45.875,66.36362,-2.375,0.002981677
60583.6144,13.625,45.875,66.54926,-2.1875,0.002991021
60583.6169,13.5,45.75,67.2173,-2.4375,0.003023724
60583.6194,13.6875,45.875,68.35285,-2.125,0.00302061
60583.6219,13.4375,45.875,69.64219,-2.0625,0.003012823
60583.6244,13.4375,46.0,70.68288,-2.0625,0.002975448
60583.6269,13.5625,46.1875,71.22227,-2.0,0.002991021
60583.6294,13.625,46.5,71.29298,-1.8125,0.003028396
60583.6319,13.5625,46.625,71.17794,-2.125,0.002994136
60583.6344,13.625,47.1875,71.24142,-2.125,0.002975448
60583.6369,13.75,47.875,71.72929,-2.375,0.00299725
60583.6394,13.5625,49.0,72.64726,-2.5,0.003008151
60583.6419,13.5625,50.125,73.77465,-2.0,0.003040855
60583.6444,13.5,51.625,74.79211,-2.1875,0.003031511
60583.6469,13.625,52.875,75.4421,-2.125,0.003026839
60583.6494,13.5625,54.125,75.63652,-1.9375,0.003015938
60583.6519,13.5,55.1875,75.46529,-2.25,0.003009709
60583.6544,13.5625,56.6875,75.11769,-2.375,0.003064214
60583.6569,13.625,57.5,74.77365,-2.3125,0.00307823
60583.6594,13.5,58.5625,74.52601,-2.1875,0.003062657
60583.6619,13.5625,59.3125,74.36752,-2.375,0.003062657
60583.6644,13.8125,60.5,74.2333,-2.4375,0.00309536
60583.6669,13.625,61.25,74.06168,-2.3125,0.003132735
60583.6694,13.625,62.0,73.83256,-2.25,0.003146751
60583.6719,13.5625,63.0,73.56659,-2.25,0.003173225
60583.6744,13.625,64.125,73.29731,-1.875,0.003188798
60583.6769,13.6875,65.125,73.0406,-1.875,0.003215272
60583.6794,13.625,66.1875,72.78313,-2.25,0.003237074
60583.6819,13.5,67.375,72.49459,-2.0625,0.003271335
60583.6844,13.4375,68.3125,72.14881,-1.9375,0.003283794
60583.6869,13.625,69.375,71.73846,-2.375,0.003272892
60583.6894,13.5625,70.625,71.27599,-2.625,0.003293137
60583.6919,13.4375,71.6875,70.7858,-2.5,0.00329158
60583.6944,13.5625,72.6875,70.2988,-2.25,0.003272892
60583.6969,13.5625,73.875,69.85303,-2.4375,0.003255762
60583.6994,13.4375,74.6875,69.49361,-2.5,0.003254205
60583.7019,13.6875,75.6875,69.26092,-1.625,0.003257319
60583.7044,13.5625,76.4375,69.16299,-2.1875,0.0032106
60583.7069,13.375,77.375,69.14581,-2.3125,0.003184126
60583.7094,13.5625,78.1875,69.08723,-1.8125,0.003174782
60583.7119,13.5625,78.875,68.83336,-2.1875,0.003171668
60583.7144,13.75,79.75,68.2715,-2.375,0.003202814
60583.7169,13.5625,80.5625,67.40405,-1.6875,0.003170111
60583.7194,13.625,81.1875,66.37267,-1.5,0.00313585
60583.7219,13.5,81.6875,65.40024,-1.9375,0.003138965
60583.7244,13.5,82.25,64.6649,-1.875,0.003159209
60583.7269,13.625,82.75,64.16718,-2.125,0.003179454
60583.7294,13.4375,83.25,63.67199,-1.9375,0.003154538
60583.7319,13.625,83.6875,62.78012,-2.0,0.003128063
60583.7344,13.5,84.1875,61.1111,-2.25,0.003149866
60583.7369,13.4375,84.5,58.5125,-1.75,0.003168553
60583.7394,13.4375,84.8125,55.17863,-1.875,0.003168553
60583.7419,13.5,85.1875,51.59582,-1.8125,0.003146751
60583.7444,13.375,85.4375,48.32268,-1.6875,0.003134293
60583.7469,13.5,85.625,45.71048,-2.0,0.003123392
60583.7494,13.4375,85.875,43.71581,-1.6875,0.003160767
60583.7519,13.4375,85.75,41.92271,-1.9375,0.003182569
60583.7544,13.5,85.6875,39.78259,-2.0625,0.003148308
60583.7569,13.5,85.875,36.95695,-2.5625,0.003157652
60583.7594,13.5625,86.0625,33.57803,-2.3125,0.003160767
60583.7619,13.3125,85.9375,30.27198,-2.3125,0.003159209
60583.7644,13.5,86.0,27.90864,-2.625,0.003162324
60583.7669,13.5,85.875,27.19056,-1.9375,0.003131178
60583.7694,13.5,85.6875,28.28881,-2.3125,0.00315298
60583.7719,13.4375,85.8125,30.71962,-1.75,0.003163881
60583.7744,13.5625,85.875,33.53522,-1.9375,0.003182569
60583.7769,13.3125,85.5,35.738,-2.0625,0.003163881
60583.7794,13.5,85.125,36.7085,-2.0,0.003171668
60583.7819,13.5,84.875,36.43244,-1.6875,0.003171668
60583.7844,13.25,84.75,35.41973,-1.75,0.003146751
60583.7869,13.3125,84.4375,34.37518,-2.3125,0.003162324
60583.7894,13.5625,84.125,33.80977,-2.5,0.003166996
60583.7919,13.375,83.75,33.80395,-2.0625,0.003154538
60583.7944,13.375,83.3125,34.03793,-1.75,0.003166996
60583.7969,13.25,82.8125,34.0485,-1.5,0.003188798
60583.7994,13.3125,82.4375,33.54478,-1.8125,0.00319347
60583.8019,13.125,81.875,32.59151,-1.375,0.003145194
60583.8044,13.1875,81.1875,31.55543,-1.4375,0.003132735
60583.8069,13.1875,80.625,30.85914,-1.75,0.003137407
60583.8094,13.3125,80.0625,30.70263,-1.5625,0.00317634
60583.8119,13.0,79.375,30.9305,-1.625,0.00319347
60583.8144,13.0,78.6875,31.13063,-1.875,0.003154538
60583.8169,13.25,77.9375,30.9044,-2.375,0.003162324
60583.8194,13.0625,77.3125,30.13899,-2.1875,0.00315298
60583.8219,13.0625,76.5,29.10581,-2.25,0.003162324
60583.8244,13.1875,75.75,28.3114,-2.0625,0.003181012
60583.8269,12.9375,75.0,28.18029,-2.0625,0.00313585
60583.8294,12.9375,74.1875,28.75768,-2.125,0.003121834
60583.8319,13.1875,73.625,29.62106,-2.0625,0.003131178
60583.8344,13.0625,72.8125,30.07367,-1.625,0.00315298
60583.8369,13.0625,72.0,29.52801,-1.6875,0.003156095
60583.8394,13.0625,71.25,27.86848,-1.8125,0.003126506
60583.8419,12.9375,70.625,25.57837,-1.9375,0.003128063
60583.8444,12.875,70.0625,23.54164,-1.6875,0.003138965
60583.8469,12.9375,69.5,22.60871,-1.625,0.003149866
60583.8494,13.0,69.125,23.15153,-1.875,0.003145194
60583.8519,13.1875,68.5,24.84848,-1.8125,0.003104704
60583.8544,13.0625,68.125,26.82169,-1.8125,0.003124949
60583.8569,12.8125,67.625,28.06205,-1.5,0.003132735
60583.8594,13.0625,67.375,27.92365,-1.8125,0.003126506
60583.8619,12.8125,66.625,26.43241,-1.9375,0.003093803
60583.8644,12.875,66.1875,24.25318,-2.3125,0.003090688
60583.8669,13.0,65.75,22.34048,-2.4375,0.003123392
60583.8694,12.9375,65.125,21.46079,-2.125,0.003117162
60583.8719,12.9375,64.6875,21.83348,-2.0625,0.00309536
60583.8744,12.9375,64.3125,23.06561,-1.9375,0.003093803
60583.8769,12.9375,63.8125,24.39414,-1.8125,0.00309536
60583.8794,12.9375,63.5,25.09197,-1.9375,0.003120277
60583.8819,13.0,62.9375,24.81978,-1.5625,0.003115605
60583.8844,12.875,62.625,23.75003,-1.6875,0.003098475
60583.8869,13.125,62.1875,22.42243,-1.875,0.003076673
60583.8894,13.0,61.875,21.43185,-1.6875,0.003093803
60583.8919,13.0,61.5625,21.12553,-1.8125,0.003117162
60583.8944,12.9375,60.9375,21.46255,-2.375,0.003100032
60583.8969,13.0625,60.8125,22.08814,-2.4375,0.003114048
60583.8994,13.0,60.4375,22.55726,-2.0625,0.003059542
60583.9019,12.8125,60.0625,22.56955,-1.5625,0.003045527
60583.9044,13.125,59.75,22.09333,-2.0,0.003086016
60583.9069,13.0625,59.625,21.33034,-2.25,0.003087574
60583.9094,12.75,59.25,20.56547,-1.9375,0.003086016
60583.9119,13.0625,58.9375,20.00191,-1.9375,0.00305487
60583.9144,13.0,58.8125,19.67324,-2.5,0.003057985
60583.9169,12.8125,58.5,19.46689,-2.0625,0.003081344
60583.9194,13.125,58.25,19.22435,-2.25,0.003075115
60583.9219,13.0,58.0,18.8465,-1.9375,0.003070443
60583.9244,12.9375,57.6875,18.34062,-2.0,0.003042412
60583.9269,13.125,57.5,17.79163,-2.0625,0.003067329
60583.9294,13.0,57.3125,17.28953,-2.1875,0.003089131
60583.9319,12.875,56.9375,16.86755,-2.0,0.003090688
60583.9344,13.1875,56.6875,16.49048,-1.4375,0.003101589
60583.9369,12.9375,56.625,16.0948,-1.1875,0.003089131
60583.9394,12.8125,56.25,15.64647,-1.4375,0.003134293
60583.9419,12.8125,56.125,15.17291,-1.625,0.003154538
60583.9444,13.0,56.0,14.74666,-1.9375,0.003149866
60583.9469,13.0625,55.6875,14.43299,-2.1875,0.00313585
60583.9494,13.0625,55.625,14.23865,-1.9375,0.003132735
60583.9519,13.0625,55.1875,14.09931,-1.5,0.003159209
60583.9544,13.125,55.125,13.91614,-2.3125,0.003149866
60583.9569,12.875,54.875,13.61954,-2.3125,0.003143636
60583.9594,13.0,54.75,13.21915,-1.75,0.003138965
60583.9619,13.0625,54.5625,12.80776,-1.6875,0.003149866
60583.9644,13.0,54.4375,12.51261,-1.6875,0.003160767
60583.9669,13.1875,54.25,12.42446,-1.75,0.003128063
60583.9694,13.0625,53.9375,12.54688,-1.9375,0.003072001
60583.9719,13.0,53.625,12.79628,-1.75,0.003062657
60583.9744,13.0,53.75,13.05278,-1.75,0.003026839
60583.9769,12.875,53.375,13.22959,-1.4375,0.003050198
60583.9794,12.8125,53.0625,13.31911,-1.8125,0.003026839
60583.9819,12.75,53.125,13.38824,-1.9375,0.002992578
60583.9844,13.0625,52.8125,13.52847,-1.9375,0.002972333
60583.9869,13.0,52.6875,13.79237,-1.875,0.002994136
60583.9894,12.8125,52.5625,14.15795,-2.0625,0.003014381
60583.9919,13.0,52.375,14.54501,-2.125,0.002998808
60583.9944,12.875,52.1875,14.87566,-2.125,0.002973891
60583.9969,12.8125,52.0,15.14005,-2.0,0.002941187
60583.9994,12.875,51.9375,15.42739,-1.75,0.002966104
60584.0019,12.8125,51.5,15.89396,-1.4375,0.002984792
60584.0044,13.0625,51.75,16.68092,-1.5625,0.002973891
60584.0069,12.625,51.3125,17.82283,-1.4375,0.002966104
60584.0094,12.8125,51.25,19.19389,-1.625,0.002952089
60584.0119,12.9375,51.125,20.52822,-1.6875,0.002972333
60584.0144,12.9375,51.0,21.51297,-1.6875,0.00296299
60584.0169,12.8125,50.8125,21.91512,-1.8125,0.002930286
60584.0194,12.75,50.875,21.68748,-1.75,0.00293963
60584.0219,12.6875,50.625,20.99853,-1.9375,0.002931844
60584.0244,12.6875,50.5625,20.17025,-1.9375,0.002924057
60584.0269,12.75,50.375,19.54692,-1.9375,0.002875781
60584.0294,12.6875,50.0625,19.34942,-1.6875,0.002813489
60584.0319,12.625,50.1875,19.57906,-1.5625,0.002830619
60584.0344,12.6875,49.875,20.01611,-1.5625,0.002964547
60584.0369,12.5625,49.875,20.31707,-1.625,0.003221501
60584.0394,12.5,49.8125,20.1708,-1.9375,0.003459768
60584.0419,12.6875,49.75,19.44768,-1.875,0.003472227
60584.0444,12.5625,49.75,18.27227,-1.8125,0.002977005
60584.0469,12.5,49.5,16.98153,-1.6875,0.002366544
60584.0494,12.625,49.625,15.97878,-1.625,0.00229958
60584.0519,12.4375,49.25,15.54449,-1.5625,0.002364986
60584.0544,12.4375,49.4375,15.69126,-1.875,0.002435065
60584.0569,12.4375,49.25,16.13897,-1.6875,0.00254719
60584.0594,12.5,49.1875,16.43413,-1.4375,0.002684233
60584.0619,12.5625,49.25,16.16579,-1.6875,0.002780785
60584.0644,12.4375,49.0,15.17957,-1.8125,0.002804145
60584.0669,12.5625,48.875,13.67853,-2.0,0.002821275
60584.0694,12.5625,48.9375,12.14758,-1.6875,0.002860208
60584.0719,12.375,48.6875,11.12344,-1.5625,0.002897583
60584.0744,12.4375,48.75,10.9138,-1.6875,0.002919385
60584.0769,12.375,48.75,11.40919,-1.6875,0.002891354
60584.0794,12.3125,48.5625,12.09758,-1.625,0.002877338
60584.0819,12.5,48.625,12.29513,-1.5625,0.002888239
60584.0844,12.3125,48.25,11.49405,-1.8125,0.002919385
60584.0869,12.5,48.4375,9.655656,-2.4375,0.002930286
60584.0894,12.3125,48.25,7.289815,-2.3125,0.002916271
60584.0919,12.4375,48.0,5.260699,-2.1875,0.00289914
60584.0944,12.4375,48.1875,4.395399,-2.0625,0.002878895
60584.0969,12.375,47.9375,5.083918,-2.25,0.002896026
60584.0994,12.625,47.9375,7.075083,-1.5625,0.002905369
60584.1019,12.3125,47.9375,9.58497,-1.6875,0.002863322
60584.1044,12.5625,47.6875,11.67918,-1.75,0.002869552
60584.1069,12.3125,47.6875,12.74613,-2.0625,0.002867994
60584.1094,12.25,47.4375,12.82421,-1.875,0.002877338
60584.1119,12.3125,47.625,12.61075,-1.75,0.002863322
60584.1144,12.4375,47.3125,13.14004,-2.0,0.002844635
60584.1169,12.4375,47.3125,15.2856,-2.0625,0.002853979
60584.1194,12.1875,47.25,19.33554,-1.5,0.002830619
60584.1219,12.625,47.1875,24.85385,-1.125,0.002816603
60584.1244,12.4375,47.1875,30.89444,-1.5625,0.002790129
60584.1269,12.4375,47.125,36.45425,-1.8125,0.002782343
60584.1294,12.375,47.1875,40.93192,-1.9375,0.002808817
60584.1319,12.1875,46.9375,44.35981,-2.1875,0.002799473
60584.1344,12.4375,46.875,47.30065,-1.75,0.002788572
60584.1369,12.25,46.6875,50.47803,-1.75,0.002785457
60584.1394,12.3125,46.625,54.34554,-2.1875,0.002769884
60584.1419,12.375,46.6875,58.82326,-2.4375,0.00276677
60584.1444,12.1875,46.4375,63.33518,-2.375,0.002782343
60584.1469,12.25,46.4375,67.11442,-2.3125,0.002763655
60584.1494,12.125,46.5,69.60333,-2.4375,0.002692019
60584.1519,12.3125,46.4375,70.7326,-2.375,0.002684233
60584.1544,12.0,46.125,70.93517,-2.3125,0.002698249
60584.1569,12.0,46.125,70.90237,-2.5625,0.002716936
60584.1594,12.0,45.875,71.22606,-2.5625,0.002723165
60584.1619,12.0625,45.8125,72.12342,-2.3125,0.00266866
60584.1644,11.9375,45.8125,73.38512,-2.0,0.002662431
60584.1669,12.0625,45.625,74.55677,-2.0,0.002679561
60584.1694,12.125,45.5625,75.23849,-1.9375,0.002690462
60584.1719,12.0,45.4375,75.3271,-2.1875,0.002674889
60584.1744,11.8125,45.375,75.07024,-1.8125,0.002642186
60584.1769,12.0625,45.375,74.91409,-1.9375,0.002640628
60584.1794,12.0,45.375,75.24374,-2.125,0.002653087
60584.1819,11.875,45.3125,76.16839,-2.3125,0.002656201
60584.1844,12.0,45.375,77.47004,-2.0625,0.002665545
60584.1869,11.8125,45.3125,78.73694,-2.25,0.002642186
60584.1894,11.875,45.5,79.59494,-1.875,0.002663988
60584.1919,12.0,45.4375,79.90454,-2.0625,0.002676446
60584.1944,12.0625,45.75,79.81699,-1.6875,0.00266866
60584.1969,11.8125,45.9375,79.66827,-1.9375,0.002663988
60584.1994,12.0625,46.125,79.7827,-2.0625,0.002662431
60584.2019,11.875,46.625,80.30165,-2.125,0.002696691
60584.2044,12.0,47.0625,81.12911,-2.125,0.002704478
60584.2069,11.9375,48.125,82.01089,-1.9375,0.002687347
60584.2094,12.0,49.0,82.69217,-2.25,0.002690462
60584.2119,12.0625,50.4375,83.05486,-2.0625,0.002704478
60584.2144,11.9375,51.6875,83.15957,-2.375,0.002738738
60584.2169,12.0625,52.875,83.17999,-2.125,0.002751197
60584.2194,12.0625,54.125,83.2797,-2.25,0.00272628
60584.2219,11.9375,55.3125,83.51203,-2.75,0.00270915
60584.2244,12.0625,56.1875,83.80029,-2.25,0.002757426
60584.2269,12.0625,57.3125,83.9996,-2.4375,0.002819718
60584.2294,12.0,58.0625,83.99744,-2.5625,0.002825947
60584.2319,12.4375,59.0625,83.7837,-2.3125,0.002832176
60584.2344,12.0625,59.875,83.44933,-2.3125,0.002857093
60584.2369,12.375,60.9375,83.12009,-2.3125,0.002925614
60584.2394,12.0625,61.8125,82.87181,-2.25,0.002983235
60584.2419,12.3125,62.875,82.68409,-2.0625,0.003006594
60584.2444,12.25,63.75,82.46115,-2.0625,0.003045527
60584.2469,12.3125,64.875,82.10361,-2.5,0.003043969
60584.2494,12.25,65.875,81.58215,-2.375,0.003087574
60584.2519,12.125,66.875,80.96298,-2.5,0.003110933
60584.2544,12.3125,68.0,80.36743,-2.625,0.003121834
60584.2569,12.1875,69.125,79.89205,-1.6875,0.003124949
60584.2594,12.25,70.25,79.54153,-1.5625,0.003106261
60584.2619,12.125,71.25,79.21989,-1.8125,0.003086016
60584.2644,12.1875,72.25,78.78967,-2.1875,0.003073558
60584.2669,12.25,73.375,78.16215,-2.0,0.003057985
60584.2694,12.1875,74.1875,77.36166,-2.3125,0.003034625
60584.2719,12.125,75.125,76.52097,-2.375,0.003003479
60584.2744,12.0625,75.875,75.8055,-2.125,0.002998808
60584.2769,12.1875,76.875,75.3102,-1.8125,0.002998808
60584.2794,12.1875,77.6875,74.99342,-2.1875,0.003006594
60584.2819,12.25,78.375,74.69155,-2.25,0.00299725
60584.2844,12.125,79.125,74.21121,-2.375,0.002958318
60584.2869,12.1875,79.8125,73.44633,-2.5,0.002969219
60584.2894,12.0625,80.375,72.44779,-2.3125,0.002973891
60584.2919,12.1875,81.125,71.39637,-2.0,0.002967662
60584.2944,12.125,81.625,70.48655,-2.0,0.002987906
60584.2969,12.25,82.125,69.78326,-2.0625,0.002991021
60584.2994,12.25,82.6875,69.13911,-2.3125,0.003000365
60584.3019,12.0625,83.0,68.2318,-2.1875,0.002969219
60584.3044,12.3125,83.1875,66.71644,-2.1875,0.002950531
60584.3069,12.0,83.5,64.42053,-2.0,0.00295676
60584.3094,12.1875,84.125,61.47394,-1.6875,0.002973891
60584.3119,12.0625,84.4375,58.29262,-2.0625,0.002998808
60584.3144,12.1875,84.4375,55.40728,-2.1875,0.002967662
60584.3169,12.1875,84.625,53.21291,-2.3125,0.002938073
60584.3194,12.3125,84.75,51.76662,-2.0,0.002941187
60584.3219,12.125,85.0,50.74749,-1.625,0.002969219
60584.3244,12.0,85.0,49.61542,-1.875,0.002998808
60584.3269,12.125,85.25,47.90318,-2.125,0.002977005
60584.3294,11.9375,85.1875,45.499,-1.9375,0.002972333
60584.3319,12.3125,85.1875,42.769,-2.0,0.002973891
60584.3344,12.125,85.0,40.43928,-1.9375,0.002983235
60584.3369,12.25,85.0,39.27574,-2.0,0.003006594
60584.3394,12.0625,85.0625,39.7061,-2.375,0.003003479
60584.3419,12.125,84.75,41.56964,-2.1875,0.002986349
60584.3444,12.25,84.625,44.12878,-1.8125,0.00296299
60584.3469,12.1875,84.5625,46.3545,-2.625,0.002983235
60584.3494,12.1875,84.375,47.36271,-2.5625,0.002975448
60584.3519,12.0625,84.0625,46.79758,-2.5625,0.002972333
60584.3544,12.125,83.6875,44.97599,-2.5625,0.002981677
60584.3569,12.0,83.5,42.718,-2.5,0.002973891
60584.3594,11.9375,83.125,40.94129,-2.875,0.002975448
60584.3619,12.1875,82.875,40.21591,-2.8125,0.002986349
60584.3644,12.125,82.0625,40.49798,-2.25,0.002987906
60584.3669,12.125,81.75,41.17595,-2.3125,0.002973891
60584.3694,12.0,81.375,41.40708,-1.8125,0.002973891
60584.3719,12.0,80.6875,40.57442,-2.1875,0.002981677
60584.3744,12.0625,80.375,38.63105,-2.5625,0.002969219
60584.3769,11.875,79.75,36.1497,-1.9375,0.002975448
60584.3794,12.0625,79.125,34.04628,-2.125,0.003001922
60584.3819,12.0625,78.5,33.1134,-2.25,0.003015938
60584.3844,11.875,77.625,33.60125,-2.125,0.003009709
60584.3869,12.0,77.0,35.06601,-1.875,0.002967662
60584.3894,11.9375,76.0625,36.57208,-2.1875,0.002955203
60584.3919,12.0625,75.5,37.15399,-2.25,0.003001922
60584.3944,12.0625,74.625,36.3077,-2.375,0.003028396
60584.3969,11.75,73.8125,34.25991,-2.375,0.003009709
60584.3994,12.0625,72.875,31.87282,-2.4375,0.002989464
60584.4019,12.0,72.3125,30.22446,-2.5625,0.00296299
60584.4044,11.9375,71.625,30.07094,-2.875,0.002966104
60584.4069,12.0,70.875,31.45908,-2.875,0.003006594
60584.4094,11.9375,70.0625,33.68484,-2.6875,0.003023724
60584.4119,12.0,69.5625,35.6203,-3.125,0.002981677
60584.4144,11.75,69.0625,36.2484,-2.9375,0.002991021
60584.4169,11.9375,68.5625,35.14285,-2.6875,0.002983235
60584.4194,12.0625,68.1875,32.65993,-2.3125,0.003022167
60584.4219,11.875,67.6875,29.75561,-2.5625,0.003026839
60584.4244,11.9375,67.3125,27.5263,-2.3125,0.002978563
60584.4269,12.0,66.75,26.70399,-2.4375,0.002977005
60584.4294,12.0,66.25,27.34846,-2.5,0.003011266
60584.4319,12.0625,65.75,28.87285,-2.375,0.003034625
60584.4344,11.75,65.3125,30.3687,-2.5625,0.003011266
60584.4369,12.0,64.875,31.05375,-2.625,0.002987906
60584.4394,11.9375,64.4375,30.61776,-2.3125,0.003003479
60584.4419,12.0625,63.875,29.30981,-2.4375,0.003028396
60584.4444,12.0,63.5,27.75021,-2.75,0.003028396
60584.4469,12.0,63.0,26.58544,-2.75,0.003011266
60584.4494,12.0625,62.625,26.17208,-2.3125,0.003000365
60584.4519,12.0625,62.25,26.442,-2.1875,0.003012823
60584.4544,12.125,61.6875,26.9942,-2.4375,0.003025282
60584.4569,12.125,61.4375,27.34078,-2.5,0.003019052
60584.4594,11.875,61.125,27.16426,-2.1875,0.003009709
60584.4619,12.0,60.625,26.45494,-2.5625,0.003001922
60584.4644,12.1875,60.375,25.47371,-2.25,0.003006594
60584.4669,12.0625,60.0625,24.58105,-2.25,0.003025282
60584.4694,12.125,59.75,24.03781,-1.9375,0.003011266
60584.4719,12.0,59.375,23.88386,-2.125,0.002983235
60584.4744,12.1875,59.0,23.94735,-2.3125,0.003000365
60584.4769,12.125,58.9375,23.9616,-2.625,0.003012823
60584.4794,11.9375,58.625,23.71382,-2.5625,0.003015938
60584.4819,12.1875,58.3125,23.14538,-2.5625,0.003006594
60584.4844,12.125,58.0625,22.35845,-2.4375,0.002986349
60584.4869,12.125,57.6875,21.54073,-2.5625,0.002994136
60584.4894,12.125,57.6875,20.86032,-2.3125,0.003005037
60584.4919,12.0,57.375,20.3896,-2.5,0.002994136
60584.4944,12.0,57.125,20.09131,-2.625,0.00298012
60584.4969,12.3125,57.0,19.86093,-1.9375,0.002969219
60584.4994,12.25,56.8125,19.59215,-2.3125,0.003003479
60584.5019,12.0625,56.4375,19.22679,-2.1875,0.003015938
60584.5044,12.0625,56.1875,18.76921,-2.0,0.003045527
60584.5069,12.1875,56.0,18.26833,-2.0,0.003042412
60584.5094,11.9375,55.625,17.78694,-2.3125,0.003026839
60584.5119,12.125,55.5625,17.37753,-2.375,0.003028396
60584.5144,12.25,55.4375,17.07216,-2.6875,0.0030611
60584.5169,12.0625,55.0625,16.88078,-2.5625,0.003084459
60584.5194,12.1875,54.9375,16.78943,-2.4375,0.003087574
60584.5219,12.1875,54.75,16.75694,-2.625,0.003090688
60584.5244,12.3125,54.5625,16.71751,-2.375,0.003093803
60584.5269,11.875,54.3125,16.59876,-2.125,0.003120277
60584.5294,12.3125,54.125,16.35778,-2.1875,0.003120277
60584.5319,12.125,53.8125,16.01997,-2.1875,0.003090688
60584.5344,12.25,53.8125,15.69646,-2.1875,0.003042412
60584.5369,12.25,53.75,15.55925,-2.625,0.003068886
60584.5394,12.3125,53.375,15.77276,-2.6875,0.003059542
60584.5419,12.1875,53.25,16.4105,-2.5625,0.003019052
60584.5444,12.0625,53.0625,17.39816,-1.875,0.002983235
60584.5469,12.3125,52.875,18.51983,-1.6875,0.002981677
60584.5494,12.25,52.6875,19.49623,-1.9375,0.002983235
60584.5519,12.4375,52.5625,20.1049,-1.5,0.002959875
60584.5544,12.25,52.375,20.28635,-2.125,0.002942745
60584.5569,12.0625,52.125,20.17895,-2.25,0.002924057
60584.5594,12.1875,52.125,20.06048,-2.375,0.002917828
60584.5619,12.1875,51.8125,20.21965,-2.125,0.002952089
60584.5644,12.125,51.6875,20.81865,-2.0625,0.002925614
60584.5669,12.125,51.5625,21.81438,-1.875,0.002889796
60584.5694,12.0625,51.375,22.97936,-1.8125,0.002891354
60584.5719,12.0625,51.3125,24.01174,-2.0625,0.002908484
60584.5744,12.0,51.125,24.67741,-1.75,0.002942745
60584.5769,12.0625,51.0625,24.91397,-2.125,0.0029225
60584.5794,12.0,50.9375,24.84351,-1.1875,0.002930286
60584.5819,12.0625,50.625,24.69117,-1.75,0.002927172
60584.5844,12.0625,50.6875,24.65728,-1.875,0.002933401
60584.5869,12.0,50.5,24.8115,-1.875,0.002955203
60584.5894,12.125,50.5625,25.06424,-2.125,0.002944302
60584.5919,11.9375,50.25,25.22644,-2.0625,0.002928729
60584.5944,11.875,50.0,25.12176,-2.1875,0.002878895
60584.5969,12.0,49.875,24.68346,-2.1875,0.002816603
60584.5994,11.9375,49.875,23.98629,-2.25,0.002785457
60584.6019,11.75,49.6875,23.19908,-2.625,0.00286488
60584.6044,11.9375,49.625,22.49051,-2.5625,0.003065771
60584.6069,11.6875,49.5,21.94558,-2.5,0.003358544
60584.6094,11.9375,49.625,21.53932,-2.375,0.003575009
60584.6119,11.8125,49.375,21.17822,-2.3125,0.003294695
60584.6144,11.9375,49.25,20.77964,-2.1875,0.002687347
60584.6169,11.875,49.375,20.33185,-2.1875,0.002280892
60584.6194,11.625,49.125,19.89592,-2.4375,0.002319825
60584.6219,11.875,49.125,19.54694,-2.625,0.002438179
60584.6244,11.625,49.0,19.29449,-2.125,0.002514487
60584.6269,11.75,48.75,19.04079,-2.3125,0.002620384
60584.6294,11.8125,48.8125,18.61368,-2.625,0.002720051
60584.6319,11.625,48.6875,17.86572,-2.25,0.002799473
60584.6344,11.75,48.75,16.78407,-2.1875,0.002866437
60584.6369,11.5625,48.625,15.53929,-2.4375,0.002855536
60584.6394,11.6875,48.5,14.4289,-2.125,0.002846192
60584.6419,11.75,48.5,13.73031,-2.1875,0.002874223
60584.6444,11.625,48.25,13.53642,-2.0625,0.002902255
60584.6469,11.75,48.4375,13.6694,-2.0,0.002913156
60584.6494,11.5,48.25,13.73655,-2.375,0.002896026
60584.6519,11.6875,48.1875,13.31786,-2.875,0.002896026
60584.6544,11.6875,48.0625,12.19943,-2.6875,0.002889796
60584.6569,11.4375,47.875,10.52894,-2.1875,0.002902255
60584.6594,11.75,48.0,8.799547,-2.375,0.002931844
60584.6619,11.5,47.875,7.652164,-2.0,0.002872666
60584.6644,11.5,47.75,7.583107,-2.0625,0.00285865
60584.6669,11.5,47.75,8.701217,-2.0,0.002880453
60584.6694,11.5625,47.5625,10.66348,-2.1875,0.002886682
60584.6719,11.75,47.4375,12.832,-2.5,0.002897583
60584.6744,11.5625,47.25,14.5838,-2.5,0.00288201
60584.6769,11.8125,47.25,15.62351,-2.625,0.002892911
60584.6794,11.625,47.1875,16.14333,-1.9375,0.002924057
60584.6819,11.625,47.0625,16.74797,-2.25,0.002944302
60584.6844,11.5625,46.9375,18.17969,-2.375,0.002944302
60584.6869,11.5625,47.0,20.97608,-2.25,0.002906927
60584.6894,11.75,46.875,25.22567,-2.375,0.002917828
60584.6919,11.6875,46.75,30.53454,-2.5,0.002892911
60584.6944,11.75,46.8125,36.20959,-2.6875,0.002902255
60584.6969,11.875,46.6875,41.55908,-2.375,0.002903812
60584.6994,11.6875,46.75,46.16103,-2.3125,0.002889796
60584.7019,11.5625,46.5625,49.97755,-2.25,0.002894468
60584.7044,11.625,46.5,53.27858,-2.1875,0.002883567
60584.7069,11.625,46.3125,56.43602,-2.5,0.002885125
60584.7094,11.5625,46.25,59.70521,-2.6875,0.002889796
60584.7119,11.75,46.125,63.10218,-2.625,0.002883567
60584.7144,11.625,46.3125,66.42472,-2.5625,0.00288201
60584.7169,11.5,46.3125,69.38131,-2.5625,0.002875781
60584.7194,11.4375,46.0625,71.74479,-2.0625,0.002874223
60584.7219,11.4375,46.125,73.44651,-2.25,0.002857093
60584.7244,11.4375,45.8125,74.57148,-2.4375,0.002849307
60584.7269,11.4375,45.8125,75.27952,-2.6875,0.002874223
60584.7294,11.375,45.6875,75.71361,-2.4375,0.002871109
60584.7319,11.4375,45.625,75.95383,-2.6875,0.002877338
60584.7344,11.4375,45.5625,76.03634,-2.375,0.002830619
60584.7369,11.3125,45.6875,76.00979,-2.5,0.002830619
60584.7394,11.3125,45.4375,75.97814,-2.6875,0.002867994
60584.7419,11.375,45.3125,76.09026,-2.625,0.002861765
60584.7444,11.4375,45.25,76.47412,-3.0,0.002872666
60584.7469,11.4375,45.125,77.15881,-2.625,0.002850864
60584.7494,11.5625,45.0,78.03719,-2.6875,0.002819718
60584.7519,11.3125,45.0625,78.90239,-2.6875,0.002836848
60584.7544,11.4375,45.125,79.54694,-2.8125,0.002861765
60584.7569,11.375,45.125,79.87067,-2.875,0.002867994
60584.7594,11.5,45.3125,79.93684,-2.4375,0.002836848
60584.7619,11.375,45.4375,79.94195,-2.3125,0.002846192
60584.7644,11.375,45.5625,80.11278,-2.6875,0.00285865
60584.7669,11.4375,45.8125,80.58728,-2.625,0.002867994
60584.7694,11.5,46.0625,81.34463,-2.375,0.002877338
60584.7719,11.5,46.5625,82.22182,-2.4375,0.002860208
60584.7744,11.4375,47.25,83.00627,-2.5,0.002843077
60584.7769,11.5625,48.125,83.55202,-2.5,0.002885125
60584.7794,11.5625,49.25,83.85288,-2.4375,0.00288201
60584.7819,11.6875,50.5625,84.033,-2.375,0.002874223
60584.7844,11.5625,51.75,84.26308,-2.625,0.002875781
60584.7869,11.625,52.9375,84.65159,-2.1875,0.002905369
60584.7894,11.625,54.125,85.17588,-2.1875,0.002908484
60584.7919,11.5625,55.1875,85.6899,-1.8125,0.002908484
60584.7944,11.5625,56.3125,86.00526,-2.375,0.002910041
60584.7969,11.5,57.125,85.99768,-2.5,0.002950531
60584.7994,11.875,58.125,85.67709,-2.4375,0.003005037
60584.8019,11.75,59.125,85.18236,-2.75,0.003019052
60584.8044,11.8125,60.0,84.70411,-2.875,0.003050198
60584.8069,11.625,60.9375,84.37971,-2.625,0.003068886
60584.8094,11.8125,61.8125,84.22079,-2.4375,0.003117162
60584.8119,11.75,62.9375,84.11337,-2.4375,0.00319347
60584.8144,11.75,63.9375,83.88871,-2.4375,0.003213715
60584.8169,11.8125,65.0,83.42382,-2.25,0.003229288
60584.8194,11.75,65.9375,82.71272,-2.3125,0.00323396
60584.8219,11.875,67.0,81.86956,-2.1875,0.003257319
60584.8244,11.6875,68.3125,81.06277,-2.0625,0.003294695
60584.8269,11.875,69.25,80.41928,-2.1875,0.00329158
60584.8294,11.5625,70.3125,79.95506,-2.3125,0.003269778
60584.8319,11.875,71.375,79.57047,-2.375,0.003230845
60584.8344,11.75,72.625,79.11352,-2.0,0.003221501
60584.8369,11.75,73.4375,78.47313,-2.625,0.003240189
60584.8394,11.875,74.4375,77.64738,-2.0,0.003218387
60584.8419,11.75,75.4375,76.74651,-1.9375,0.003202814
60584.8444,11.875,76.1875,75.92805,-2.0,0.003179454
60584.8469,11.9375,77.0625,75.3019,-1.9375,0.003160767
60584.8494,11.8125,77.8125,74.8609,-1.6875,0.00317634
60584.8519,12.0625,78.75,74.47952,-1.9375,0.003166996
60584.8544,12.0,79.4375,73.98315,-1.6875,0.003159209
60584.8569,11.9375,80.0,73.24929,-1.8125,0.003148308
60584.8594,11.9375,80.875,72.28019,-2.25,0.00313585
60584.8619,11.75,81.25,71.20112,-2.0,0.003142079
60584.8644,11.875,81.9375,70.18129,-2.3125,0.003148308
60584.8669,11.8125,82.25,69.32031,-1.5,0.003142079
60584.8694,11.9375,82.6875,68.56589,-1.75,0.003126506
60584.8719,11.875,83.25,67.71756,-1.625,0.003137407
60584.8744,11.75,83.6875,66.52304,-1.5625,0.003142079
60584.8769,11.875,83.875,64.81974,-2.25,0.003151423
60584.8794,11.8125,84.0,62.64251,-2.5,0.003148308
60584.8819,11.75,84.25,60.23064,-2.6875,0.003145194
60584.8844,11.875,84.8125,57.91968,-2.875,0.003171668
60584.8869,11.6875,84.625,55.96893,-2.75,0.003162324
60584.8894,11.6875,84.875,54.41832,-2.9375,0.003140522
60584.8919,11.8125,84.9375,53.06085,-2.0625,0.003132735
60584.8944,11.75,85.0,51.55984,-1.875,0.003154538
60584.8969,11.8125,85.0625,49.65903,-2.3125,0.003177897
60584.8994,11.75,85.0,47.37526,-2.1875,0.003165439
60584.9019,11.75,85.0,45.0604,-2.0625,0.003151423
60584.9044,11.75,85.0,43.28017,-2.1875,0.003132735
60584.9069,11.5,84.75,42.55355,-2.25,0.003154538
60584.9094,11.8125,84.875,43.07695,-2.0625,0.003187241
60584.9119,11.6875,84.625,44.57834,-2.75,0.003151423
60584.9144,11.8125,84.625,46.38988,-2.4375,0.003123392
60584.9169,11.8125,84.4375,47.7191,-2.1875,0.003117162
60584.9194,11.75,84.1875,47.99282,-2.375,0.003137407
60584.9219,11.625,83.9375,47.10437,-2.1875,0.003177897
60584.9244,11.6875,83.5625,45.43713,-1.875,0.003151423
60584.9269,11.75,83.1875,43.6499,-1.6875,0.003120277
60584.9294,11.6875,82.875,42.33289,-2.1875,0.00311872
60584.9319,11.75,82.4375,41.71274,-1.4375,0.003145194
60584.9344,11.75,81.9375,41.56139,-1.625,0.003171668
60584.9369,11.75,81.5,41.3554,-2.25,0.003170111
60584.9394,11.75,80.875,40.59731,-2.1875,0.003162324
60584.9419,11.625,80.375,39.12105,-2.125,0.003143636
60584.9444,11.6875,80.0,37.20885,-2.375,0.00315298
60584.9469,11.4375,79.25,35.45037,-2.0,0.003148308
60584.9494,11.8125,78.6875,34.41661,-2.1875,0.003138965
60584.9519,11.6875,78.0625,34.3283,-2.4375,0.003134293
60584.9544,11.8125,77.25,34.90784,-2.0,0.003120277
60584.9569,11.5,76.375,35.50795,-1.875,0.003140522
60584.9594,11.8125,75.9375,35.45774,-2.1875,0.003148308
60584.9619,11.5625,75.0,34.44308,-2.0625,0.003128063
60584.9644,11.6875,74.3125,32.70952,-2.125,0.003137407
60584.9669,11.5625,73.6875,30.96546,-2.0,0.003138965
60584.9694,11.6875,72.875,30.02244,-2.125,0.003154538
60584.9719,11.5625,72.0625,30.35437,-2.25,0.003154538
60584.9744,11.75,71.4375,31.81072,-2.4375,0.003138965
60584.9769,11.625,70.8125,33.6449,-2.4375,0.00315298
60584.9794,11.6875,70.3125,34.85624,-2.5625,0.003179454
60584.9819,11.4375,69.5,34.67914,-2.625,0.003177897
60584.9844,11.75,69.0,32.96992,-2.375,0.003137407
60584.9869,11.6875,68.5,30.2909,-2.375,0.003126506
60584.9894,11.8125,68.125,27.6468,-2.9375,0.003149866
60584.9919,11.6875,67.6875,26.00537,-2.3125,0.003170111
60584.9944,11.8125,67.25,25.84513,-2.25,0.003173225
60584.9969,11.8125,66.6875,26.95513,-2.1875,0.003137407
60584.9994,11.75,66.125,28.57853,-2.125,0.003129621
60585.0019,11.75,65.5625,29.81415,-2.0,0.003140522
60585.0044,11.8125,65.1875,30.06137,-2.0625,0.003163881
60585.0069,11.75,64.6875,29.28135,-2.5625,0.003165439
60585.0094,11.9375,64.1875,27.95282,-2.3125,0.003131178
60585.0119,11.625,63.625,26.76587,-1.875,0.003120277
60585.0144,11.875,63.25,26.23193,-1.75,0.003149866
60585.0169,11.8125,62.8125,26.42161,-2.0,0.003166996
60585.0194,11.8125,62.4375,26.96329,-2.3125,0.003148308
60585.0219,11.75,62.0625,27.28823,-2.0625,0.003110933
60585.0244,11.9375,61.6875,26.97397,-1.875,0.003110933
60585.0269,11.8125,61.25,25.99294,-2.4375,0.003121834
60585.0294,11.875,60.9375,24.73222,-3.0625,0.003151423
60585.0319,11.9375,60.75,23.77983,-2.4375,0.003154538
60585.0344,11.875,60.25,23.60106,-2.3125,0.003115605
60585.0369,12.0,60.0,24.28279,-2.0,0.003132735
60585.0394,11.875,59.75,25.48136,-1.9375,0.003128063
60585.0419,11.9375,59.375,26.5961,-2.625,0.003128063
60585.0444,11.9375,59.0625,27.07002,-2.125,0.003117162
60585.0469,11.8125,58.8125,26.65649,-1.75,0.003103147
60585.0494,11.9375,58.75,25.51778,-1.875,0.003132735
60585.0519,11.875,58.3125,24.11377,-2.0625,0.003140522
60585.0544,11.875,58.0625,22.95422,-2.25,0.003140522
60585.0569,11.875,57.75,22.34999,-2.0625,0.003114048
60585.0594,11.8125,57.625,22.28942,-2.1875,0.003137407
60585.0619,11.875,57.4375,22.49046,-2.5625,0.003146751
60585.0644,11.9375,57.1875,22.58317,-1.9375,0.003132735
60585.0669,11.875,57.125,22.31403,-1.875,0.00311872
60585.0694,11.75,56.8125,21.66377,-2.125,0.003124949
60585.0719,11.875,56.625,20.82745,-1.4375,0.003163881
60585.0744,11.8125,56.25,20.08431,-1.25,0.003179454
60585.0769,11.875,56.1875,19.63993,-1.3125,0.003201257
60585.0794,11.8125,55.9375,19.52799,-1.8125,0.003221501
60585.0819,12.0,55.75,19.61623,-2.375,0.003182569
60585.0844,11.875,55.5,19.70018,-2.1875,0.003187241
60585.0869,11.9375,55.1875,19.62196,-2.0625,0.003237074
60585.0894,12.0625,55.0,19.34646,-2.125,0.003254205
60585.0919,11.8125,54.8125,18.96007,-2.125,0.003255762
60585.0944,11.875,54.625,18.60381,-2.625,0.003235517
60585.0969,11.875,54.5,18.38821,-2.1875,0.003246418
60585.0994,11.875,54.125,18.34017,-2.75,0.003269778
60585.1019,12.0,54.125,18.40495,-2.0,0.003240189
60585.1044,11.9375,54.0,18.49411,-2.125,0.003229288
60585.1069,11.8125,53.6875,18.54315,-2.1875,0.003181012
60585.1094,11.9375,53.5625,18.54421,-2.0625,0.003149866
60585.1119,11.8125,53.3125,18.54108,-2.1875,0.00315298
60585.1144,12.1875,53.3125,18.59646,-2.1875,0.003137407
60585.1169,11.875,53.0625,18.75734,-2.1875,0.003121834
60585.1194,12.0,53.0,19.03897,-2.625,0.003096917
60585.1219,11.875,52.5625,19.43085,-2.1875,0.00309536
60585.1244,11.875,52.5,19.91182,-2.0625,0.003096917
60585.1269,12.0,52.5,20.45663,-2.125,0.003093803
60585.1294,11.8125,52.25,21.02864,-2.25,0.003082902
60585.1319,12.0,52.125,21.57103,-2.3125,0.003076673
60585.1344,11.8125,51.75,22.01225,-2.25,0.003070443
60585.1369,12.0,51.875,22.29716,-2.3125,0.003068886
60585.1394,11.875,51.6875,22.43282,-2.1875,0.00305487
60585.1419,11.9375,51.625,22.51866,-2.1875,0.003026839
60585.1444,11.9375,51.375,22.73119,-2.375,0.003031511
60585.1469,11.8125,51.25,23.25196,-2.25,0.003075115
60585.1494,11.9375,51.1875,24.16352,-2.0,0.0030611
60585.1519,11.75,50.875,25.36838,-1.75,0.003043969
60585.1544,11.875,50.625,26.58376,-1.6875,0.003028396
60585.1569,11.875,50.625,27.43367,-1.9375,0.003039297
60585.1594,11.875,50.375,27.60927,-2.0,0.003076673
60585.1619,11.875,50.4375,27.02286,-2.3125,0.0030611
60585.1644,11.875,50.25,25.87227,-2.1875,0.003012823
60585.1669,11.75,50.125,24.57223,-2.0625,0.002961432
60585.1694,11.75,50.125,23.57297,-1.9375,0.002908484
60585.1719,11.875,50.0625,23.14916,-1.8125,0.002966104
60585.1744,11.8125,49.8125,23.26588,-1.9375,0.003124949
60585.1769,11.8125,49.75,23.59388,-2.125,0.003437966
60585.1794,11.875,49.9375,23.6771,-1.4375,0.003649759
60585.1819,11.6875,49.5625,23.17018,-1.875,0.00352206
60585.1844,11.75,49.4375,22.02552,-1.6875,0.003009709
60585.1869,11.75,49.4375,20.52991,-1.5,0.002413263
60585.1894,11.5625,49.375,19.16466,-1.8125,0.002377445
60585.1919,11.625,49.375,18.35616,-1.9375,0.002450638
60585.1944,11.9375,49.375,18.24616,-2.0625,0.002561206
60585.1969,11.8125,49.1875,18.6041,-2.0,0.002692019
60585.1994,11.75,49.0,18.93485,-1.6875,0.00276677
60585.2019,11.625,48.75,18.73229,-2.0,0.002827504
60585.2044,11.75,49.0625,17.74908,-1.6875,0.002869552
60585.2069,11.6875,48.75,16.13928,-1.625,0.0029225
60585.2094,11.6875,48.75,14.39165,-1.625,0.002927172
60585.2119,11.75,48.75,13.08098,-1.75,0.002914713
60585.2144,11.75,48.625,12.56359,-1.75,0.002928729
60585.2169,11.8125,48.25,12.77691,-1.5,0.002920942
60585.2194,11.75,48.4375,13.25577,-1.5,0.002969219
60585.2219,11.6875,48.3125,13.36636,-1.375,0.002958318
60585.2244,11.625,48.375,12.64325,-1.5,0.002936516
60585.2269,11.6875,48.1875,11.05634,-1.8125,0.002950531
60585.2294,11.75,48.3125,9.064902,-1.4375,0.002947417
60585.2319,11.625,47.875,7.421819,-1.6875,0.002964547
60585.2344,11.625,47.875,6.819888,-1.9375,0.002925614
60585.2369,11.75,47.875,7.555738,-1.9375,0.002902255
60585.2394,11.75,47.75,9.381929,-1.8125,0.002897583
60585.2419,11.75,47.625,11.62721,-1.6875,0.002897583
60585.2444,11.8125,47.6875,13.52844,-1.625,0.002928729
60585.2469,11.6875,47.75,14.61271,-1.6875,0.002900698
60585.2494,11.6875,47.3125,14.94147,-2.0625,0.00285865
60585.2519,11.9375,47.375,15.09616,-2.0625,0.002853979
60585.2544,11.9375,47.4375,15.91328,-1.6875,0.002872666
60585.2569,11.875,47.25,18.10042,-2.0625,0.002878895
60585.2594,11.9375,47.25,21.91637,-1.8125,0.002852421
60585.2619,11.875,47.1875,27.06387,-1.9375,0.002836848
60585.2644,12.0,47.0,32.83493,-1.9375,0.002818161
60585.2669,11.9375,47.125,38.42602,-1.3125,0.002839963
60585.2694,12.0,47.0,43.2653,-2.0625,0.002855536
60585.2719,11.9375,47.0625,47.19946,-2.4375,0.002833734
60585.2744,11.875,46.75,50.46772,-2.25,0.002821275
60585.2769,11.8125,46.75,53.4994,-1.9375,0.002788572
60585.2794,11.9375,46.75,56.65318,-2.125,0.002819718
60585.2819,11.9375,46.625,60.03142,-2.0,0.002833734
60585.2844,11.8125,46.5625,63.45129,-1.6875,0.002797916
60585.2869,11.9375,46.5,66.56592,-2.0,0.002794801
60585.2894,12.0,46.625,69.05443,-1.4375,0.002796358
60585.2919,11.8125,46.25,70.77499,-1.5625,0.002816603
60585.2944,11.875,46.25,71.80775,-1.9375,0.002796358
60585.2969,11.875,46.1875,72.38249,-2.4375,0.002780785
60585.2994,11.9375,46.25,72.74664,-2.375,0.002799473
60585.3019,11.875,46.0,73.05439,-2.0,0.002785457
60585.3044,12.0625,45.9375,73.33416,-2.5625,0.002776114
60585.3069,11.8125,45.8125,73.53893,-2.0625,0.00276677
60585.3094,11.8125,45.6875,73.63557,-2.125,0.00276677
60585.3119,11.75,45.75,73.67018,-2.375,0.002779228
60585.3144,11.8125,45.625,73.76768,-2.0625,0.002793244
60585.3169,12.0,45.625,74.06758,-2.0625,0.002791687
60585.3194,11.9375,45.6875,74.63866,-1.9375,0.002774556
60585.3219,11.875,45.5625,75.4276,-1.75,0.002771442
60585.3244,11.875,45.625,76.27569,-2.0,0.002791687
60585.3269,12.0,45.6875,76.99694,-1.6875,0.002810374
60585.3294,11.9375,45.8125,77.47353,-2.125,0.002836848
60585.3319,11.75,45.875,77.71542,-2.0,0.002805702
60585.3344,12.125,46.0,77.85065,-2.1875,0.002804145
60585.3369,11.9375,46.125,78.0533,-2.0625,0.002810374
60585.3394,12.0,46.5,78.44889,-2.0625,0.002835291
60585.3419,12.0625,46.875,79.05024,-2.0625,0.002843077
60585.3444,12.0625,47.5625,79.7575,-2.3125,0.002791687
60585.3469,12.125,48.4375,80.41869,-2.5,0.002774556
60585.3494,12.125,49.5,80.91495,-2.4375,0.002804145
60585.3519,12.0625,50.75,81.22194,-2.375,0.002843077
60585.3544,12.1875,52.125,81.41541,-2.5,0.002832176
60585.3569,12.25,53.375,81.61942,-2.3125,0.002790129
60585.3594,12.1875,54.5625,81.93028,-2.375,0.002804145
60585.3619,12.1875,55.75,82.35831,-2.5625,0.002835291
60585.3644,12.25,56.75,82.8186,-2.4375,0.002874223
60585.3669,12.1875,57.75,83.17458,-2.4375,0.002886682
60585.3694,12.1875,58.75,83.30768,-2.75,0.002903812
60585.3719,12.375,59.75,83.17484,-2.8125,0.002953646
60585.3744,12.375,60.75,82.82434,-2.5625,0.002986349
60585.3769,12.1875,61.5625,82.36274,-2.5625,0.003033068
60585.3794,12.4375,62.375,81.89301,-2.625,0.003104704
60585.3819,12.625,63.4375,81.46133,-2.9375,0.003190355
60585.3844,12.4375,64.4375,81.03906,-3.0,0.003286908
60585.3869,12.375,65.5,80.54826,-3.0,0.003369445
60585.3894,12.5,66.75,79.91451,-3.1875,0.003422393
60585.3919,12.625,67.75,79.11417,-3.25,0.003478456
60585.3944,12.375,68.9375,78.1937,-3.25,0.00354542
60585.3969,12.5,70.0625,77.24857,-3.0625,0.003582795
60585.3994,12.6875,71.0625,76.37695,-3.0,0.003571894
60585.4019,12.6875,72.0625,75.63149,-2.625,0.003550092
60585.4044,12.6875,73.1875,74.99654,-2.5,0.003565665
60585.4069,12.6875,74.25,74.4024,-2.5625,0.003480013
60585.4094,12.5,75.0625,73.76549,-2.8125,0.00383975
60585.4119,12.625,76.0625,73.03452,-3.0625,0.003237074
60585.4144,12.6875,77.0,72.2178,-2.8125,0.0007173624
60585.4169,12.5,77.75,71.37916,-2.5625,0.0005881064
60585.4194,12.75,78.6875,70.60538,-2.625,0.0003918866
60585.4219,12.5625,79.375,69.96394,-2.4375,0.0006410546
60585.4244,12.5625,80.0,69.47334,-2.5625,0.002825947
60585.4269,12.75,80.8125,69.09811,-2.5,0.002936516
60585.4294,12.5,81.5,68.76912,-2.1875,0.002491128
60585.4319,12.8125,82.0625,68.41596,-2.375,0.002385231
60585.4344,12.75,82.8125,67.99364,-2.625,0.002284007
60585.4369,12.6875,83.1875,67.49061,-2.1875,0.002232616
60585.4394,12.8125,83.875,66.91799,-2.0625,0.002243517
60585.4419,12.5625,84.0625,66.28687,-2.0625,0.002279335
60585.4444,12.75,84.5,65.58752,-2.125,0.002349413
60585.4469,12.6875,84.75,64.78219,-2.125,0.002453752
60585.4494,12.8125,85.25,63.81291,-2.1875,0.002576779
60585.4519,12.8125,85.4375,62.61995,-2.0625,0.002682676
60585.4544,12.8125,85.9375,61.16093,-2.1875,0.002771442
60585.4569,12.875,86.0625,59.42373,-2.3125,0.002853979
60585.4594,12.8125,86.0,57.43048,-2.375,0.002920942
60585.4619,12.8125,86.25,55.23557,-2.3125,0.002966104
60585.4644,12.75,86.1875,52.92169,-1.9375,0.002986349
60585.4669,12.75,86.5,50.59564,-2.3125,0.003006594
60585.4694,12.875,86.6875,48.38132,-1.6875,0.003053313
60585.4719,12.6875,86.75,46.40585,-2.0625,0.003056428
60585.4744,12.9375,87.0,44.77749,-1.9375,0.003065771
60585.4769,12.8125,86.875,43.55976,-1.6875,0.003064214
60585.4794,12.875,86.75,42.75203,-1.875,0.003065771
60585.4819,12.75,86.8125,42.28687,-2.0,0.00311249
60585.4844,12.8125,86.625,42.04917,-2.375,0.003093803
60585.4869,13.0625,86.5,41.91117,-1.8125,0.003048641
60585.4894,12.875,86.625,41.76923,-1.625,0.003036183
60585.4919,12.75,86.125,41.56565,-2.125,0.003031511
60585.4944,12.875,86.25,41.28614,-2.4375,0.003045527
60585.4969,12.875,86.0,40.93523,-2.375,0.003026839
60585.4994,12.8125,85.625,40.5047,-2.5,0.002973891
60585.5019,12.9375,85.5,39.95314,-2.375,0.002970776
60585.5044,12.875,85.1875,39.2107,-2.4375,0.002994136
60585.5069,12.75,84.9375,38.20885,-2.6875,0.003019052
60585.5094,13.0,84.5625,36.92039,-2.3125,0.003009709
60585.5119,12.875,84.0,35.38835,-2.0625,0.002989464
60585.5144,12.9375,83.75,33.72763,-2.25,0.00299725
60585.5169,12.9375,83.375,32.0952,-2.75,0.003025282
60585.5194,12.875,83.0,30.6415,-2.3125,0.003100032
60585.5219,12.875,82.125,29.46308,-2.0625,0.002867994
60585.5244,12.8125,81.8125,28.57956,-2.125,0.003453539
60585.5269,12.9375,81.1875,27.94186,-2.5,0.002262204
60585.5294,12.875,80.6875,27.46618,-2.125,-0.002571656
60585.5319,12.75,80.125,27.07798,-1.625,-0.002686896
60585.5344,12.8125,79.6875,26.74477,-1.875,-0.002831725
60585.5369,12.8125,78.8125,26.48725,-1.6875,-0.002023486
60585.5394,12.8125,78.5,26.36808,-2.0,0.002389903
60585.5419,12.9375,78.0,26.46411,-1.75,0.00293963
60585.5444,12.75,77.5,26.83359,-1.875,0.002695134
60585.5469,12.75,76.8125,27.48657,-2.125,0.002916271
60585.5494,12.75,76.5,28.36448,-2.375,0.002941187
60585.5519,12.8125,75.75,29.33393,-2.5,0.00298012
60585.5544,12.875,75.3125,30.19972,-1.9375,0.00302061
60585.5569,12.8125,74.8125,30.74051,-1.875,0.003036183
60585.5594,12.75,74.375,30.76506,-1.5625,0.003040855
60585.5619,12.75,73.875,30.17603,-1.5625,0.003090688
60585.5644,12.6875,73.1875,29.01889,-1.4375,0.003143636
60585.5669,12.8125,72.875,27.49039,-1.25,0.003215272
60585.5694,12.8125,72.3125,25.89213,-1.625,0.003266663
60585.5719,12.8125,71.875,24.53704,-1.75,0.003299367
60585.5744,12.875,71.4375,23.64028,-1.6875,0.00337256
60585.5769,12.625,70.8125,23.24026,-1.9375,0.003453539
60585.5794,12.625,70.4375,23.18875,-1.9375,0.003525175
60585.5819,12.9375,69.75,23.22092,-1.4375,0.003554764
60585.5844,12.6875,69.375,23.0792,-1.5,0.003550092
60585.5869,12.875,68.75,22.63617,-1.875,0.003595254
60585.5894,12.75,68.375,21.95845,-2.0625,0.003655988
60585.5919,12.6875,67.75,21.27877,-1.875,0.003676233
60585.5944,12.75,67.1875,20.88723,-1.8125,0.003673119
60585.5969,12.75,66.6875,20.9925,-1.375,0.003676233
60585.5994,12.6875,66.125,21.62038,-1.375,0.003694921
60585.6019,12.8125,65.75,22.59911,-2.0625,0.003691806
60585.6044,12.9375,65.375,23.63837,-1.75,0.003621728
60585.6069,12.8125,64.5625,24.46212,-2.125,0.003520503
60585.6094,12.8125,64.0,24.92922,-2.1875,0.003425508
60585.6119,12.625,63.5625,25.08313,-1.75,0.003311825
60585.6144,12.75,63.0625,25.1096,-2.0,0.003252647
60585.6169,12.8125,62.625,25.22803,-2.125,0.003168553
60585.6194,12.75,62.4375,25.57517,-2.0,0.0030611
60585.6219,13.0625,62.0,26.14024,-1.8125,0.002975448
60585.6244,12.8125,61.625,26.78145,-1.9375,0.002902255
60585.6269,12.75,61.375,27.31,-1.75,0.002830619
60585.6294,12.9375,61.0,27.5928,-2.125,0.002776114
60585.6319,12.8125,60.6875,27.61951,-2.125,0.002710707
60585.6344,12.75,60.4375,27.50002,-2.4375,0.002721608
