Time (s),Venous (mmHg),FAP (mmHg),Arterial - Pigtail (mmHg),Swan (mmHg),EKG (mV)
61008.6144,11.375,13.625,9.306236,-3.1875,0.003132735
61008.6169,11.375,13.4375,9.230273,-3.375,0.003149866
61008.6194,11.375,13.375,9.168343,-3.4375,0.003157652
61008.6219,11.5,13.375,9.122464,-3.5625,0.003181012
61008.6244,11.3125,13.5,9.087794,-3.25,0.003187241
61008.6269,11.375,13.5625,9.055498,-3.1875,0.003179454
61008.6294,11.3125,13.5625,9.01715,-2.8125,0.00319347
61008.6319,11.4375,13.25,8.968478,-3.0625,0.003209043
61008.6344,11.5,13.5625,8.910697,-2.9375,0.0032106
61008.6369,11.375,13.4375,8.848882,-3.1875,0.003207486
61008.6394,11.4375,13.4375,8.788372,-3.375,0.003196585
61008.6419,11.4375,13.4375,8.731215,-3.25,0.003199699
61008.6444,11.3125,13.4375,8.674812,-3.25,0.003223059
61008.6469,11.3125,13.5,8.613282,-3.375,0.003224616
61008.6494,11.3125,13.5,8.541055,-3.25,0.003181012
61008.6519,11.5,13.5,8.456644,-2.6875,0.003187241
61008.6544,11.4375,13.4375,8.364561,-2.9375,0.003190355
61008.6569,11.4375,13.375,8.274015,-3.1875,0.003191913
61008.6594,11.5625,13.5625,8.195006,-2.375,0.003195027
61008.6619,11.4375,13.5625,8.1336,-2.6875,0.003162324
61008.6644,11.4375,13.375,8.088714,-2.375,0.003092246
61008.6669,11.4375,13.5,8.052129,-2.5,0.003086016
61008.6694,11.5,13.5,8.011854,-3.125,0.003124949
61008.6719,11.4375,13.5,7.957534,-3.0,0.003089131
61008.6744,11.375,13.6875,7.885303,-2.9375,0.003017495
61008.6769,11.375,13.625,7.800032,-2.9375,0.003040855
61008.6794,11.3125,13.4375,7.713735,-3.0625,0.003045527
61008.6819,11.4375,13.5625,7.641121,-3.125,0.003031511
61008.6844,11.375,13.625,7.59409,-2.75,0.003040855
61008.6869,11.4375,13.5625,7.577557,-2.9375,0.002994136
61008.6894,11.4375,13.5,7.588183,-3.1875,0.002987906
61008.6919,11.375,13.5,7.616362,-2.4375,0.003023724
61008.6944,11.4375,13.5,7.650344,-1.9375,0.003031511
61008.6969,11.4375,13.6875,7.680756,-2.6875,0.003036183
61008.6994,11.25,13.5,7.703632,-2.3125,0.003015938
61008.7019,11.5625,13.4375,7.721116,-3.0,0.003012823
61008.7044,11.25,13.4375,7.739699,-4.0,0.003029954
61008.7069,11.4375,13.4375,7.767184,-3.625,0.003023724
61008.7094,11.4375,13.625,7.809435,-3.0,0.003012823
61008.7119,11.4375,13.4375,7.868207,-1.875,0.003022167
61008.7144,11.3125,13.75,7.940635,-2.6875,0.003042412
61008.7169,11.5625,13.5625,8.02026,-3.0625,0.003076673
61008.7194,11.5625,13.5,8.09924,-3.75,0.003065771
61008.7219,11.4375,13.5,8.17073,-3.375,0.003065771
61008.7244,11.5,13.5625,8.230753,-3.0625,0.003079787
61008.7269,11.375,13.5,8.279018,-2.75,0.003068886
61008.7294,11.3125,13.6875,8.318438,-2.3125,0.003070443
61008.7319,11.4375,13.4375,8.353518,-2.8125,0.003073558
61008.7344,11.5625,13.4375,8.388306,-2.375,0.003050198
61008.7369,11.375,13.625,8.424402,-2.9375,0.003082902
61008.7394,11.5625,13.4375,8.460032,-3.125,0.003100032
61008.7419,11.4375,13.5,8.490296,-3.375,0.003120277
61008.7444,11.3125,13.5,8.508769,-3.5,0.003096917
61008.7469,11.4375,13.6875,8.509931,-2.625,0.003062657
61008.7494,11.25,13.625,8.491233,-2.4375,0.003079787
61008.7519,11.5,13.625,8.454179,-2.5,0.003087574
61008.7544,11.3125,13.75,8.403715,-3.0625,0.003062657
61008.7569,11.375,13.3125,8.346245,-2.9375,0.003068886
61008.7594,11.3125,13.75,8.286982,-2.75,0.003050198
61008.7619,11.4375,13.5625,8.227674,-3.3125,0.003029954
61008.7644,11.1875,13.5,8.165942,-3.625,0.003023724
61008.7669,11.3125,13.6875,8.096494,-3.9375,0.003026839
61008.7694,11.3125,13.625,8.013775,-3.9375,0.003029954
61008.7719,11.4375,13.5,7.915063,-4.0,0.002986349
61008.7744,11.4375,13.5625,7.802409,-3.4375,0.002983235
61008.7769,11.25,13.625,7.682616,-2.75,0.002994136
61008.7794,11.375,13.5625,7.564935,-2.9375,0.003005037
61008.7819,11.5,13.5625,7.457395,-3.3125,0.003014381
61008.7844,11.5,13.3125,7.363398,-3.6875,0.002969219
61008.7869,11.5,13.6875,7.280057,-3.0,0.00298012
61008.7894,11.375,13.6875,7.199309,-3.1875,0.003025282
61008.7919,11.5,13.625,7.111384,-2.75,0.003039297
61008.7944,11.375,13.5,7.009393,-3.125,0.003008151
61008.7969,11.3125,13.625,6.892766,-3.4375,0.002998808
61008.7994,11.375,13.6875,6.768054,-3.0625,0.003031511
61008.8019,11.5,13.8125,6.646446,-3.3125,0.003023724
61008.8044,11.4375,13.625,6.539093,-3.0625,0.003028396
61008.8069,11.375,13.6875,6.452084,-2.9375,0.003008151
61008.8094,11.375,13.625,6.383763,-3.5625,0.003029954
61008.8119,11.5,13.75,6.325315,-3.4375,0.003073558
61008.8144,11.375,13.5625,6.264926,-3.3125,0.003053313
61008.8169,11.5,13.6875,6.193332,-3.5625,0.00303774
61008.8194,11.3125,13.625,6.108452,-3.25,0.003039297
61008.8219,11.3125,13.5625,6.0167,-3.0625,0.003086016
61008.8244,11.4375,13.5,5.930456,-2.6875,0.003128063
61008.8269,11.3125,13.6875,5.862583,-3.5625,0.003100032
61008.8294,11.4375,13.75,5.820821,-2.875,0.003100032
61008.8319,11.25,13.5,5.804413,-2.8125,0.003092246
61008.8344,11.5,13.5625,5.804783,-3.0,0.003126506
61008.8369,11.375,13.5625,5.809656,-3.375,0.003166996
61008.8394,11.375,13.625,5.80871,-3.1875,0.003148308
61008.8419,11.4375,13.6875,5.797767,-2.5625,0.003156095
61008.8444,11.4375,13.625,5.779919,-2.6875,0.003159209
61008.8469,11.3125,13.625,5.762857,-2.8125,0.003156095
61008.8494,11.5625,13.625,5.754253,-3.0625,0.003188798
61008.8519,11.4375,13.625,5.757518,-3.0625,0.003160767
61008.8544,11.4375,13.5625,5.770158,-3.125,0.00313585
61008.8569,11.375,13.6875,5.785249,-3.0625,0.003107819
61008.8594,11.25,13.5,5.795374,-3.1875,0.00311249
61008.8619,11.375,13.5625,5.796372,-2.875,0.003115605
61008.8644,11.3125,13.625,5.789137,-3.3125,0.003109376
61008.8669,11.4375,13.6875,5.778471,-3.25,0.003101589
61008.8694,11.4375,13.6875,5.769767,-2.9375,0.003068886
61008.8719,11.5,13.4375,5.765586,-2.875,0.003081344
61008.8744,11.5625,13.625,5.763966,-3.0,0.003081344
61008.8769,11.375,13.5625,5.759643,-2.875,0.00307823
61008.8794,11.4375,13.5625,5.747261,-2.9375,0.003076673
61008.8819,11.5,13.875,5.724865,-3.0625,0.003064214
61008.8844,11.4375,13.5,5.69557,-2.5,0.003079787
61008.8869,11.375,13.5625,5.666368,-2.6875,0.00305487
61008.8894,11.4375,13.4375,5.644875,-2.625,0.003076673
61008.8919,11.3125,13.6875,5.635529,-2.5,0.003070443
61008.8944,11.3125,13.5,5.63759,-2.0,0.0030611
61008.8969,11.625,13.875,5.645914,-2.4375,0.003104704
61008.8994,11.3125,13.5625,5.654092,-2.125,0.003081344
61008.9019,11.4375,13.625,5.658166,-2.5625,0.003042412
61008.9044,11.5,13.75,5.65879,-2.6875,0.003033068
61008.9069,11.375,13.5,5.660604,-2.5625,0.003051756
61008.9094,11.4375,13.625,5.6692,-2.6875,0.003103147
61008.9119,11.4375,13.75,5.687447,-2.9375,0.003075115
61008.9144,11.375,13.75,5.713217,-2.9375,0.003029954
61008.9169,11.5,13.5625,5.740014,-2.875,0.00303774
61008.9194,11.375,13.625,5.760144,-3.0625,0.003051756
61008.9219,11.5625,13.75,5.768729,-2.75,0.003081344
61008.9244,11.3125,13.5625,5.766181,-3.125,0.003073558
61008.9269,11.5,13.625,5.757837,-2.5,0.00302061
61008.9294,11.5,13.625,5.750659,-2.375,0.003022167
61008.9319,11.375,13.5625,5.749037,-2.75,0.003051756
61008.9344,11.625,13.75,5.7519,-2.5,0.003082902
61008.9369,11.5,13.5625,5.75301,-2.75,0.003051756
61008.9394,11.4375,13.5625,5.744376,-2.875,0.003031511
61008.9419,11.375,13.4375,5.720959,-2.5,0.003026839
61008.9444,11.4375,13.4375,5.684162,-2.5625,0.003068886
61008.9469,11.4375,13.5,5.641895,-2.625,0.003082902
61008.9494,11.3125,13.5625,5.605096,-2.4375,0.003040855
61008.9519,11.5625,13.4375,5.582334,-2.75,0.003056428
61008.9544,11.4375,13.4375,5.575415,-2.4375,0.003019052
61008.9569,11.4375,13.5,5.578448,-3.0,0.003023724
61008.9594,11.375,13.625,5.581058,-2.875,0.003040855
61008.9619,11.4375,13.4375,5.574277,-2.9375,0.003022167
61008.9644,11.4375,13.4375,5.55603,-2.9375,0.003042412
61008.9669,11.5,13.375,5.533278,-2.75,0.003051756
61008.9694,11.625,13.5,5.519614,-2.9375,0.0030611
61008.9719,11.5,13.5,5.529111,-3.0,0.003048641
61008.9744,11.375,13.4375,5.569408,-3.125,0.003065771
61008.9769,11.375,13.375,5.637571,-3.125,0.003081344
61008.9794,11.3125,13.5,5.720464,-2.75,0.003068886
61008.9819,11.4375,13.4375,5.8,-2.6875,0.003114048
61008.9844,11.625,13.5625,5.860365,-2.3125,0.003100032
61008.9869,11.3125,13.3125,5.894257,-2.5,0.003100032
61008.9894,11.4375,13.4375,5.905249,-2.4375,0.00311872
61008.9919,11.4375,13.3125,5.905416,-2.9375,0.003124949
61008.9944,11.3125,13.3125,5.90977,-3.0625,0.003134293
61008.9969,11.5625,13.375,5.930075,-2.6875,0.003115605
61008.9994,11.375,13.4375,5.970968,-2.375,0.003134293
61009.0019,11.5625,13.5,6.029498,-2.3125,0.003154538
61009.0044,11.5,13.5,6.097877,-2.875,0.003168553
61009.0069,11.5,13.4375,6.167498,-3.125,0.003173225
61009.0094,11.4375,13.5625,6.232131,-3.125,0.00315298
61009.0119,11.3125,13.5,6.288974,-2.875,0.003129621
61009.0144,11.5,13.5,6.337702,-3.125,0.003126506
61009.0169,11.5,13.5,6.378648,-3.1875,0.003151423
61009.0194,11.5625,13.5,6.411517,-3.4375,0.003138965
61009.0219,11.5,13.5,6.435647,-2.9375,0.003086016
61009.0244,11.5,13.375,6.451233,-2.9375,0.003067329
61009.0269,11.625,13.4375,6.460853,-2.9375,0.003062657
61009.0294,11.5,13.4375,6.469988,-2.875,0.00307823
61009.0319,11.4375,13.625,6.485672,-2.9375,0.003089131
61009.0344,11.5,13.5625,6.514142,-2.6875,0.003040855
61009.0369,11.3125,13.4375,6.558178,-3.125,0.003040855
61009.0394,11.375,13.75,6.615751,-3.5,0.003047084
61009.0419,11.4375,13.3125,6.680397,-3.375,0.003059542
61009.0444,11.4375,13.5625,6.743481,-2.75,0.003082902
61009.0469,11.375,13.5625,6.797153,-3.1875,0.003065771
61009.0494,11.4375,13.5,6.836938,-3.0,0.0030611
61009.0519,11.5,13.5625,6.862961,-2.9375,0.00303774
61009.0544,11.5,13.3125,6.879623,-2.625,0.00303774
61009.0569,11.5,13.625,6.894062,-3.25,0.003019052
61009.0594,11.4375,13.5,6.914009,-2.75,0.003000365
61009.0619,11.4375,13.4375,6.94583,-3.3125,0.003026839
61009.0644,11.3125,13.4375,6.992882,-2.8125,0.003029954
61009.0669,11.4375,13.5,7.054704,-3.0625,0.003023724
61009.0694,11.375,13.5,7.126637,-3.125,0.003009709
61009.0719,11.5,13.4375,7.200356,-2.625,0.003026839
61009.0744,11.5,13.5,7.265401,-2.1875,0.003057985
61009.0769,11.375,13.4375,7.311666,-2.4375,0.003059542
61009.0794,11.4375,13.375,7.332371,-2.5,0.003068886
61009.0819,11.25,13.4375,7.326689,-2.5625,0.003081344
61009.0844,11.5,13.4375,7.300754,-2.6875,0.003086016
61009.0869,11.5,13.5,7.266631,-2.9375,0.003107819
61009.0894,11.5,13.5,7.238814,-2.5625,0.003131178
61009.0919,11.25,13.5625,7.229716,-2.8125,0.00313585
61009.0944,11.4375,13.4375,7.24543,-3.125,0.003084459
61009.0969,11.4375,13.375,7.283664,-3.125,0.003082902
61009.0994,11.3125,13.4375,7.334789,-3.6875,0.003121834
61009.1019,11.5625,13.5625,7.385424,-3.125,0.003154538
61009.1044,11.25,13.25,7.423632,-3.0,0.003165439
61009.1069,11.5,13.3125,7.443236,-2.875,0.003126506
61009.1094,11.1875,13.4375,7.445932,-3.125,0.003145194
61009.1119,11.5,13.5,7.440102,-2.8125,0.003166996
61009.1144,11.3125,13.375,7.436908,-3.0,0.003149866
61009.1169,11.625,13.5,7.445588,-2.6875,0.003168553
61009.1194,11.375,13.25,7.469531,-2.5625,0.00313585
61009.1219,11.4375,13.3125,7.504958,-2.4375,0.003137407
61009.1244,11.25,13.4375,7.542633,-2.6875,0.003166996
61009.1269,11.3125,13.3125,7.571851,-2.6875,0.003177897
61009.1294,11.3125,13.4375,7.585129,-3.3125,0.003171668
61009.1319,11.3125,13.1875,7.581572,-3.0625,0.003129621
61009.1344,11.3125,13.4375,7.567648,-2.8125,0.003168553
61009.1369,11.4375,13.3125,7.554992,-2.8125,0.00315298
61009.1394,11.3125,13.4375,7.556155,-2.875,0.003120277
61009.1419,11.3125,13.375,7.579696,-2.875,0.003134293
61009.1444,11.3125,13.25,7.626822,-2.9375,0.003123392
61009.1469,11.5,13.3125,7.690774,-3.3125,0.003131178
61009.1494,11.3125,13.25,7.75929,-3.3125,0.003106261
61009.1519,11.5625,13.25,7.819248,-3.3125,0.003086016
61009.1544,11.3125,13.1875,7.861659,-2.75,0.003070443
61009.1569,11.5,13.25,7.885199,-3.0625,0.003073558
61009.1594,11.5,13.25,7.896599,-3.3125,0.003093803
61009.1619,11.125,13.1875,7.907883,-3.0625,0.003084459
61009.1644,11.375,13.25,7.931475,-3.0,0.003064214
61009.1669,11.5,13.1875,7.974981,-2.625,0.003023724
61009.1694,11.3125,13.125,8.037838,-3.25,0.003025282
61009.1719,11.375,13.25,8.111117,-2.8125,0.003042412
61009.1744,11.4375,13.0625,8.180458,-3.1875,0.003017495
61009.1769,11.375,13.375,8.230991,-2.75,0.002998808
61009.1794,11.1875,13.125,8.252287,-3.3125,0.002969219
61009.1819,11.375,13.1875,8.241417,-3.375,0.002975448
61009.1844,11.4375,13.3125,8.203245,-3.5625,0.003026839
61009.1869,11.375,13.125,8.148062,-3.5,0.003009709
61009.1894,11.5,13.1875,8.087899,-3.3125,0.003005037
61009.1919,11.5,13.125,8.033084,-3.4375,0.002973891
61009.1944,11.3125,13.375,7.990252,-2.8125,0.002998808
61009.1969,11.3125,13.0,7.962294,-3.0,0.00303774
61009.1994,11.4375,13.125,7.949511,-3.5625,0.003045527
61009.2019,11.3125,13.0625,7.951136,-3.125,0.0030611
61009.2044,11.4375,13.125,7.966261,-3.125,0.003036183
61009.2069,11.4375,13.0,7.993559,-3.0625,0.00303774
61009.2094,11.3125,13.125,8.030606,-2.9375,0.003062657
61009.2119,11.5,13.125,8.073241,-2.9375,0.003047084
61009.2144,11.3125,13.0,8.115786,-2.875,0.003062657
61009.2169,11.4375,13.0625,8.152313,-3.1875,0.003047084
61009.2194,11.3125,13.0625,8.178517,-2.875,0.003045527
61009.2219,11.3125,12.9375,8.193297,-3.0,0.003053313
61009.2244,11.3125,12.9375,8.1992,-2.8125,0.003064214
61009.2269,11.3125,12.875,8.201456,-2.6875,0.0030611
61009.2294,11.4375,13.0,8.206111,-2.875,0.003059542
61009.2319,11.3125,12.8125,8.217699,-2.8125,0.003084459
61009.2344,11.5625,13.0625,8.237883,-3.125,0.003092246
61009.2369,11.3125,12.75,8.265161,-3.125,0.003107819
61009.2394,11.375,13.0,8.295911,-2.8125,0.003104704
61009.2419,11.4375,12.9375,8.325907,-3.0,0.003104704
61009.2444,11.3125,12.9375,8.351761,-3.125,0.003148308
61009.2469,11.375,12.9375,8.371655,-3.5625,0.003140522
61009.2494,11.375,12.9375,8.385425,-3.3125,0.003114048
61009.2519,11.375,12.8125,8.394212,-3.125,0.003089131
61009.2544,11.3125,12.625,8.400245,-2.6875,0.003110933
61009.2569,11.5625,13.0,8.406774,-2.4375,0.003149866
61009.2594,11.3125,12.6875,8.417985,-2.75,0.003114048
61009.2619,11.3125,12.8125,8.438722,-3.0,0.003098475
61009.2644,11.5,13.0,8.473357,-3.25,0.003090688
61009.2669,11.3125,12.875,8.524321,-3.0625,0.00311249
61009.2694,11.5625,12.8125,8.590702,-3.125,0.003146751
61009.2719,11.3125,12.8125,8.667951,-2.9375,0.003124949
61009.2744,11.5625,13.0,8.749048,-2.625,0.003093803
61009.2769,11.25,12.8125,8.827099,-2.625,0.003086016
61009.2794,11.5625,12.9375,8.898335,-2.625,0.003121834
61009.2819,11.3125,12.6875,8.964198,-2.875,0.003145194
61009.2844,11.4375,12.875,9.031218,-3.25,0.00311872
61009.2869,11.375,12.75,9.108677,-3.375,0.003115605
61009.2894,11.3125,12.8125,9.20475,-3.125,0.003081344
61009.2919,11.25,12.8125,9.322855,-2.75,0.003084459
61009.2944,11.25,12.875,9.459945,-2.8125,0.003110933
61009.2969,11.4375,12.8125,9.607672,-2.625,0.00309536
61009.2994,11.3125,12.6875,9.755745,-2.1875,0.003079787
61009.3019,11.4375,12.875,9.896095,-2.625,0.003067329
61009.3044,11.375,12.625,10.02561,-2.9375,0.003073558
61009.3069,11.375,12.875,10.14624,-2.9375,0.003081344
61009.3094,11.25,12.6875,10.26236,-3.0625,0.003079787
61009.3119,11.375,12.875,10.3771,-2.875,0.003070443
61009.3144,11.4375,12.6875,10.48923,-3.1875,0.003045527
61009.3169,11.375,12.8125,10.59292,-2.9375,0.003079787
61009.3194,11.5625,12.75,10.6801,-3.1875,0.0030611
61009.3219,11.375,12.75,10.74458,-3.0,0.003045527
61009.3244,11.5,12.8125,10.78566,-2.8125,0.003079787
61009.3269,11.1875,12.625,10.80915,-2.8125,0.003084459
61009.3294,11.3125,12.6875,10.82532,-2.6875,0.003081344
61009.3319,11.5,12.625,10.84446,-2.4375,0.003084459
61009.3344,11.4375,12.4375,10.87253,-2.75,0.00309536
61009.3369,11.4375,12.6875,10.90891,-2.6875,0.003087574
61009.3394,11.3125,12.5,10.94761,-2.6875,0.003079787
61009.3419,11.3125,12.625,10.98125,-2.75,0.003109376
61009.3444,11.375,12.5625,11.00552,-2.75,0.003081344
61009.3469,11.3125,12.5,11.02199,-2.9375,0.003043969
61009.3494,11.3125,12.625,11.03751,-2.9375,0.003050198
61009.3519,11.5625,12.5625,11.06045,-3.0625,0.003073558
61009.3544,11.3125,12.625,11.09586,-2.4375,0.00311872
61009.3569,11.5,12.75,11.142,-2.25,0.003104704
61009.3594,11.25,12.4375,11.19036,-2.6875,0.003053313
61009.3619,11.3125,12.625,11.22941,-3.3125,0.003068886
61009.3644,11.375,12.5625,11.25022,-3.3125,0.003084459
61009.3669,11.3125,12.5625,11.25164,-3.3125,0.003103147
61009.3694,11.3125,12.6875,11.24178,-3.4375,0.003081344
61009.3719,11.375,12.5625,11.23562,-3.4375,0.003067329
61009.3744,11.4375,12.5,11.24931,-3.1875,0.003065771
61009.3769,11.3125,12.5,11.2938,-3.25,0.00309536
61009.3794,11.4375,12.5625,11.37086,-2.875,0.003104704
61009.3819,11.3125,12.5625,11.47315,-2.8125,0.003075115
61009.3844,11.4375,12.4375,11.58797,-3.125,0.003064214
61009.3869,11.4375,12.375,11.70307,-3.25,0.003029954
61009.3894,11.3125,12.5,11.81162,-2.875,0.0030611
61009.3919,11.3125,12.4375,11.91394,-3.1875,0.003084459
61009.3944,11.375,12.5,12.01563,-2.125,0.00303774
61009.3969,11.4375,12.4375,12.12295,-2.4375,0.003043969
61009.3994,11.25,12.3125,12.2381,-2.75,0.003006594
61009.4019,11.4375,12.5625,12.35637,-2.875,0.003036183
61009.4044,11.375,12.375,12.467,-2.5,0.003015938
61009.4069,11.3125,12.4375,12.55696,-3.0625,0.002981677
61009.4094,11.25,12.375,12.61624,-2.875,0.003011266
61009.4119,11.4375,12.5,12.64203,-2.8125,0.002991021
61009.4144,11.25,12.5,12.64003,-3.0625,0.002973891
61009.4169,11.5,12.375,12.62215,-3.125,0.002964547
61009.4194,11.3125,12.375,12.60196,-2.9375,0.002950531
61009.4219,11.3125,12.5,12.58942,-3.0,0.002958318
61009.4244,11.25,12.375,12.58758,-2.875,0.002953646
61009.4269,11.3125,12.3125,12.59231,-2.875,0.002950531
61009.4294,11.3125,12.4375,12.59514,-3.125,0.002959875
61009.4319,11.4375,12.375,12.58792,-2.9375,0.002966104
61009.4344,11.25,12.3125,12.56698,-2.5625,0.002961432
61009.4369,11.4375,12.375,12.53512,-2.875,0.002952089
61009.4394,11.4375,12.3125,12.50047,-3.0,0.002973891
61009.4419,11.375,12.3125,12.47283,-2.9375,0.00293963
61009.4444,11.4375,12.375,12.45918,-2.75,0.002927172
61009.4469,11.1875,12.375,12.46044,-2.9375,0.002938073
61009.4494,11.3125,12.5,12.471,-3.0625,0.002992578
61009.4519,11.3125,12.375,12.48131,-2.8125,0.003014381
61009.4544,11.25,12.3125,12.48217,-3.1875,0.002987906
61009.4569,11.4375,12.375,12.46908,-3.125,0.00299725
61009.4594,11.25,12.3125,12.44429,-3.1875,0.002995693
61009.4619,11.3125,12.5,12.41597,-3.0625,0.00303774
61009.4644,11.1875,12.5,12.39458,-3.25,0.003070443
61009.4669,11.3125,12.4375,12.38859,-3.6875,0.00302061
61009.4694,11.375,12.5,12.40126,-3.375,0.003026839
61009.4719,11.1875,12.375,12.43015,-3.6875,0.003056428
61009.4744,11.5,12.5625,12.46925,-3.9375,0.003103147
61009.4769,11.1875,12.375,12.51278,-3.5,0.003110933
61009.4794,11.4375,12.4375,12.55834,-3.25,0.003062657
61009.4819,11.25,12.375,12.608,-3.125,0.003092246
61009.4844,11.5,12.5,12.66666,-3.1875,0.003100032
61009.4869,11.375,12.25,12.73842,-2.9375,0.003086016
61009.4894,11.4375,12.625,12.82326,-3.25,0.003110933
61009.4919,11.3125,12.375,12.91535,-3.1875,0.003090688
61009.4944,11.4375,12.4375,13.0044,-2.875,0.003104704
61009.4969,11.3125,12.375,13.0792,-3.125,0.003114048
61009.4994,11.375,12.375,13.13191,-3.4375,0.003120277
61009.5019,11.375,12.5,13.1609,-3.0,0.003115605
61009.5044,11.375,12.5,13.17069,-3.5625,0.003107819
61009.5069,11.3125,12.375,13.1694,-3.125,0.003134293
61009.5094,11.4375,12.5625,13.16478,-3.3125,0.003115605
61009.5119,11.375,12.375,13.16105,-3.375,0.003115605
61009.5144,11.4375,12.3125,13.1579,-3.375,0.003100032
61009.5169,11.5625,12.375,13.15213,-3.5625,0.003098475
61009.5194,11.5,12.25,13.14095,-3.25,0.00313585
61009.5219,11.3125,12.1875,13.12487,-3.375,0.003121834
61009.5244,11.4375,12.3125,13.10885,-3.25,0.00311249
61009.5269,11.375,12.375,13.10077,-3.3125,0.003057985
61009.5294,11.25,12.5625,13.10826,-3.1875,0.003073558
61009.5319,11.4375,12.375,13.13526,-3.375,0.00309536
61009.5344,11.375,12.4375,13.18005,-3.5625,0.003082902
61009.5369,11.25,12.1875,13.23591,-3.8125,0.00307823
61009.5394,11.5625,12.375,13.29389,-3.5,0.003031511
61009.5419,11.3125,12.125,13.34654,-3.75,0.003025282
61009.5444,11.375,12.3125,13.39063,-4.0625,0.003051756
61009.5469,11.375,12.3125,13.42796,-4.0625,0.003076673
61009.5494,11.375,12.375,13.4639,-3.8125,0.003090688
61009.5519,11.375,12.1875,13.50456,-3.875,0.003057985
61009.5544,11.25,12.25,13.55385,-3.625,0.003062657
61009.5569,11.4375,12.4375,13.61195,-3.5625,0.003065771
61009.5594,11.3125,12.25,13.6755,-3.6875,0.003084459
61009.5619,11.4375,12.25,13.73937,-3.375,0.003104704
61009.5644,11.1875,12.3125,13.79907,-3.1875,0.003076673
61009.5669,11.4375,12.3125,13.8528,-3.5,0.003048641
61009.5694,11.375,12.25,13.90234,-3.1875,0.003042412
61009.5719,11.25,12.25,13.95244,-3.6875,0.003036183
61009.5744,11.375,12.25,14.00923,-4.0,0.003051756
61009.5769,11.25,12.1875,14.07789,-4.1875,0.003014381
61009.5794,11.4375,12.3125,14.1605,-4.125,0.00299725
61009.5819,11.25,12.1875,14.25475,-4.3125,0.002995693
61009.5844,11.625,12.125,14.35365,-3.875,0.002987906
61009.5869,11.375,12.0,14.44687,-3.625,0.002972333
61009.5894,11.5,12.1875,14.52324,-3.6875,0.002964547
61009.5919,11.4375,12.125,14.57384,-4.125,0.002995693
61009.5944,11.3125,12.125,14.59495,-4.25,0.002975448
61009.5969,11.4375,12.1875,14.58955,-4.4375,0.002955203
61009.5994,11.3125,12.125,14.56654,-4.125,0.00293963
61009.6019,11.5,12.3125,14.53805,-3.875,0.00293963
61009.6044,11.375,12.125,14.51518,-4.4375,0.002986349
61009.6069,11.4375,12.0625,14.50428,-4.0625,0.002986349
61009.6094,11.5,12.3125,14.50485,-4.125,0.002966104
61009.6119,11.375,12.125,14.51062,-4.125,0.002953646
61009.6144,11.375,12.25,14.51284,-4.5625,0.002983235
61009.6169,11.5625,12.1875,14.50466,-4.5625,0.003014381
61009.6194,11.375,12.1875,14.48473,-4.1875,0.002984792
61009.6219,11.5,12.25,14.45802,-3.625,0.002969219
61009.6244,11.25,12.0625,14.4337,-3.4375,0.002967662
61009.6269,11.5,12.25,14.42116,-3.4375,0.002995693
61009.6294,11.3125,12.0625,14.42608,-3.6875,0.003022167
61009.6319,11.3125,12.0,14.44848,-3.125,0.003012823
61009.6344,11.4375,12.0625,14.48346,-3.4375,0.00302061
61009.6369,11.3125,12.0,14.52429,-3.4375,0.003000365
61009.6394,11.375,12.25,14.56591,-3.875,0.002992578
61009.6419,11.3125,12.125,14.60705,-3.3125,0.00302061
61009.6444,11.375,12.25,14.64992,-3.125,0.003057985
61009.6469,11.4375,12.25,14.69805,-3.4375,0.003033068
61009.6494,11.1875,12.125,14.75351,-3.5,0.003025282
61009.6519,11.5625,12.125,14.81542,-3.6875,0.00305487
61009.6544,11.25,12.0,14.88068,-3.875,0.003047084
61009.6569,11.375,12.0625,14.94617,-3.8125,0.0030611
61009.6594,11.3125,12.0625,15.01113,-3.8125,0.003072001
61009.6619,11.3125,12.125,15.07796,-3.6875,0.003053313
61009.6644,11.3125,12.125,15.15075,-3.75,0.003067329
61009.6669,11.5,12.1875,15.2322,-3.5,0.003067329
61009.6694,11.4375,12.125,15.32082,-3.8125,0.003079787
61009.6719,11.3125,12.1875,15.41007,-3.625,0.003092246
61009.6744,11.5625,12.1875,15.49047,-3.5625,0.00307823
61009.6769,11.1875,12.0625,15.55365,-3.5,0.003098475
61009.6794,11.375,12.25,15.59626,-3.4375,0.003115605
61009.6819,11.3125,12.125,15.62168,-3.5,0.003089131
61009.6844,11.25,12.0625,15.63824,-3.1875,0.003089131
61009.6869,11.4375,12.125,15.65494,-3.4375,0.00309536
61009.6894,11.25,12.0625,15.67683,-3.625,0.003129621
61009.6919,11.375,12.125,15.70254,-4.25,0.003114048
61009.6944,11.3125,12.1875,15.72527,-3.9375,0.003064214
61009.6969,11.4375,12.25,15.73678,-3.8125,0.003048641
61009.6994,11.3125,12.0625,15.73205,-4.4375,0.003073558
61009.7019,11.375,12.1875,15.71199,-4.4375,0.003117162
61009.7044,11.4375,12.1875,15.68278,-4.6875,0.003084459
61009.7069,11.4375,12.25,15.65218,-3.9375,0.003051756
61009.7094,11.25,12.125,15.62484,-3.9375,0.003051756
61009.7119,11.3125,12.125,15.59952,-3.9375,0.003104704
61009.7144,11.3125,12.1875,15.56964,-3.5,0.003126506
61009.7169,11.5,12.25,15.52732,-3.4375,0.003070443
61009.7194,11.375,12.1875,15.46856,-3.875,0.003039297
61009.7219,11.4375,12.1875,15.39681,-3.5625,0.003065771
61009.7244,11.4375,12.125,15.32307,-3.9375,0.003087574
61009.7269,11.3125,12.125,15.26206,-3.5,0.003096917
61009.7294,11.375,12.125,15.22645,-3.6875,0.003065771
61009.7319,11.1875,12.0625,15.22167,-3.8125,0.003050198
61009.7344,11.3125,12.0,15.24377,-3.4375,0.003026839
61009.7369,11.375,12.0,15.28089,-3.6875,0.003047084
61009.7394,11.4375,12.125,15.31775,-3.375,0.003081344
61009.7419,11.1875,12.0,15.34073,-3.375,0.003059542
61009.7444,11.375,12.125,15.34194,-3.375,0.003047084
61009.7469,11.3125,12.125,15.3208,-3.3125,0.003039297
61009.7494,11.375,12.125,15.28338,-3.1875,0.003053313
61009.7519,11.4375,12.0625,15.24018,-3.375,0.003045527
61009.7544,11.5,12.125,15.20322,-3.375,0.003019052
61009.7569,11.5,12.0,15.18306,-3.1875,0.003028396
61009.7594,11.25,12.125,15.18589,-3.0,0.003001922
61009.7619,11.4375,12.0625,15.21106,-3.125,0.003008151
61009.7644,11.3125,12.0625,15.24993,-3.1875,0.002989464
61009.7669,11.4375,12.125,15.28678,-3.6875,0.002972333
61009.7694,11.4375,12.0625,15.3025,-3.3125,0.002973891
61009.7719,11.3125,12.0,15.28086,-3.1875,0.00293963
61009.7744,11.4375,12.125,15.21504,-3.0625,0.002991021
61009.7769,11.4375,12.125,15.11182,-2.9375,0.00299725
61009.7794,11.3125,12.25,14.99107,-3.125,0.00295676
61009.7819,11.4375,12.0,14.87962,-3.0,0.002983235
61009.7844,11.1875,12.125,14.80155,-2.75,0.00299725
61009.7869,11.3125,12.25,14.76854,-2.9375,0.003023724
61009.7894,11.4375,12.0625,14.77478,-2.9375,0.003028396
61009.7919,11.3125,12.0625,14.79888,-3.3125,0.003005037
61009.7944,11.3125,12.125,14.8126,-3.0625,0.002992578
61009.7969,11.375,12.1875,14.79244,-3.375,0.003045527
61009.7994,11.1875,12.0625,14.72946,-2.8125,0.003062657
61009.8019,11.5,12.25,14.63282,-3.625,0.003042412
61009.8044,11.3125,12.125,14.52536,-3.625,0.003025282
61009.8069,11.25,11.9375,14.4337,-3.8125,0.003065771
61009.8094,11.1875,12.0625,14.37709,-3.625,0.003106261
61009.8119,11.375,12.0,14.36015,-3.8125,0.003115605
61009.8144,11.25,12.0625,14.37257,-3.5,0.003100032
61009.8169,11.3125,12.1875,14.39522,-3.25,0.003096917
61009.8194,11.4375,12.1875,14.40957,-4.25,0.00309536
61009.8219,11.4375,12.0625,14.40575,-4.125,0.003128063
61009.8244,11.375,12.1875,14.38568,-4.1875,0.003148308
61009.8269,11.375,12.0,14.36047,-3.9375,0.003131178
61009.8294,11.25,12.1875,14.34383,-4.0625,0.003143636
61009.8319,11.4375,12.125,14.34532,-4.0625,0.003131178
61009.8344,11.4375,12.125,14.36649,-3.4375,0.00313585
61009.8369,11.3125,12.25,14.40153,-3.6875,0.003138965
61009.8394,11.5625,12.125,14.44155,-3.6875,0.003120277
61009.8419,11.25,12.0625,14.47993,-3.5625,0.00311249
61009.8444,11.375,12.125,14.51584,-3.8125,0.003123392
61009.8469,11.5,12.0,14.55429,-3.875,0.00311872
61009.8494,11.3125,12.0625,14.60319,-3.5,0.003090688
61009.8519,11.3125,12.0625,14.66927,-3.6875,0.003079787
61009.8544,11.4375,12.125,14.75475,-3.5625,0.003086016
61009.8569,11.4375,12.0625,14.85675,-3.75,0.003062657
61009.8594,11.25,12.125,14.96902,-3.5625,0.003050198
61009.8619,11.5,12.0625,15.08488,-3.9375,0.003059542
61009.8644,11.375,11.875,15.19953,-3.375,0.003014381
61009.8669,11.375,12.1875,15.31035,-3.3125,0.003034625
61009.8694,11.375,12.125,15.41561,-3.75,0.003053313
61009.8719,11.375,12.0,15.51246,-3.8125,0.003001922
61009.8744,11.4375,12.0,15.59608,-3.6875,0.002973891
61009.8769,11.4375,12.25,15.66051,-3.8125,0.003006594
61009.8794,11.1875,12.0,15.70152,-3.625,0.003005037
61009.8819,11.3125,12.125,15.71943,-3.4375,0.003008151
61009.8844,11.375,12.125,15.72049,-3.625,0.003028396
61009.8869,11.25,12.125,15.71561,-3.8125,0.002983235
61009.8894,11.5,12.0625,15.71639,-3.625,0.00298012
61009.8919,11.3125,12.0,15.73044,-3.1875,0.003017495
61009.8944,11.3125,12.0,15.75783,-3.25,0.003073558
61009.8969,11.5,12.0625,15.79089,-3.625,0.003081344
61009.8994,11.125,12.0625,15.8176,-3.8125,0.003065771
61009.9019,11.375,12.125,15.82699,-3.875,0.003070443
61009.9044,11.5,12.0,15.81437,-3.75,0.003086016
61009.9069,11.375,11.9375,15.78363,-3.8125,0.003107819
61009.9094,11.4375,12.0,15.74563,-3.625,0.003117162
61009.9119,11.375,12.0,15.71315,-3.5625,0.003104704
61009.9144,11.25,12.125,15.69504,-3.4375,0.00309536
61009.9169,11.5625,12.125,15.69222,-3.5,0.003096917
61009.9194,11.25,12.0625,15.69743,-3.4375,0.003100032
61009.9219,11.3125,11.875,15.69918,-3.4375,0.003109376
61009.9244,11.5,12.0625,15.68764,-3.125,0.00309536
61009.9269,11.25,11.875,15.65988,-3.1875,0.003098475
61009.9294,11.375,12.1875,15.62192,-3.5625,0.003107819
61009.9319,11.5,12.0625,15.58654,-3.3125,0.003124949
61009.9344,11.3125,12.0625,15.56786,-3.3125,0.003098475
61009.9369,11.4375,12.125,15.57535,-3.5625,0.003079787
61009.9394,11.4375,12.0,15.60993,-3.5625,0.003126506
61009.9419,11.375,12.125,15.66402,-3.6875,0.003140522
61009.9444,11.3125,12.0,15.72538,-3.5625,0.003126506
61009.9469,11.3125,12.0625,15.78274,-3.875,0.003084459
61009.9494,11.4375,12.0,15.83083,-3.6875,0.003087574
61009.9519,11.5,12.0625,15.87219,-3.75,0.003100032
61009.9544,11.4375,12.0,15.91549,-4.1875,0.003073558
61009.9569,11.25,12.125,15.97083,-4.0,0.003062657
61009.9594,11.375,12.0,16.04449,-4.125,0.003008151
61009.9619,11.3125,12.0,16.13551,-3.5,0.003012823
61009.9644,11.5,12.0,16.23545,-3.375,0.003053313
61009.9669,11.4375,11.9375,16.3315,-3.5625,0.003029954
61009.9694,11.375,12.125,16.4115,-4.0,0.003006594
61009.9719,11.3125,12.125,16.46875,-3.9375,0.002998808
61009.9744,11.375,12.0625,16.50459,-4.1875,0.003008151
61009.9769,11.375,12.0625,16.52779,-4.625,0.003039297
61009.9794,11.25,12.0625,16.55095,-4.1875,0.003023724
61009.9819,11.25,12.0,16.58561,-3.8125,0.003014381
61009.9844,11.5,12.125,16.6378,-4.125,0.002966104
61009.9869,11.375,12.0625,16.70599,-4.375,0.002973891
61009.9894,11.4375,11.9375,16.78195,-4.625,0.002973891
61009.9919,11.375,12.0625,16.85414,-4.75,0.002973891
61009.9944,11.25,12.0625,16.91218,-4.375,0.002972333
61009.9969,11.375,12.0,16.95032,-3.9375,0.002938073
61009.9994,11.25,12.0,16.96867,-4.0625,0.002945859
61010.0019,11.3125,12.0,16.97178,-3.5625,0.002973891
61010.0044,11.4375,12.0,16.9656,-3.875,0.002981677
61010.0069,11.25,11.8125,16.95412,-3.8125,0.002986349
61010.0094,11.3125,12.0,16.93766,-3.9375,0.002967662
61010.0119,11.375,12.0625,16.91352,-4.4375,0.002994136
61010.0144,11.375,12.0,16.87847,-4.375,0.003005037
61010.0169,11.5625,12.0625,16.83152,-4.25,0.003023724
61010.0194,11.375,12.125,16.77571,-4.375,0.00302061
61010.0219,11.375,11.875,16.71749,-3.9375,0.003005037
61010.0244,11.375,11.9375,16.66416,-3.8125,0.003031511
61010.0269,11.1875,12.125,16.62078,-4.1875,0.003026839
61010.0294,11.5,12.0625,16.58839,-3.875,0.003031511
61010.0319,11.3125,11.875,16.56454,-3.9375,0.003045527
61010.0344,11.375,12.0,16.54608,-4.1875,0.003023724
61010.0369,11.4375,12.125,16.53234,-4.125,0.003064214
61010.0394,11.25,12.0,16.52712,-4.0625,0.003057985
61010.0419,11.4375,12.0,16.53741,-4.1875,0.003050198
61010.0444,11.3125,11.875,16.56992,-4.25,0.00303774
61010.0469,11.25,12.0625,16.62659,-4.1875,0.003043969
61010.0494,11.375,11.9375,16.7021,-4.3125,0.003079787
61010.0519,11.3125,12.0,16.78498,-3.9375,0.003062657
61010.0544,11.25,12.0625,16.86233,-4.0625,0.003040855
61010.0569,11.3125,12.125,16.92595,-4.25,0.00303774
61010.0594,11.3125,12.0625,16.97687,-4.625,0.003068886
61010.0619,11.4375,11.9375,17.02533,-4.4375,0.003100032
61010.0644,11.5,12.125,17.08612,-4.625,0.003050198
61010.0669,11.125,12.0625,17.17117,-4.5625,0.003019052
61010.0694,11.3125,12.125,17.28282,-3.6875,0.003029954
61010.0719,11.3125,12.0625,17.41144,-3.9375,0.003081344
61010.0744,11.3125,12.0625,17.53879,-4.125,0.003082902
61010.0769,11.375,12.0,17.64532,-3.9375,0.003053313
61010.0794,11.125,11.9375,17.71825,-3.75,0.003059542
61010.0819,11.3125,12.0625,17.75621,-3.5,0.003017495
61010.0844,11.4375,12.0625,17.76851,-4.25,0.003040855
61010.0869,11.3125,12.0625,17.76942,-4.0625,0.003057985
61010.0894,11.5,11.875,17.77082,-4.0,0.003051756
61010.0919,11.125,11.9375,17.77694,-3.625,0.003039297
61010.0944,11.3125,11.9375,17.78368,-3.9375,0.003014381
61010.0969,11.25,11.9375,17.78269,-4.0,0.003036183
61010.0994,11.375,12.0,17.76734,-4.0625,0.003025282
61010.1019,11.4375,11.875,17.73733,-4.3125,0.003028396
61010.1044,11.25,11.9375,17.69906,-3.6875,0.00303774
61010.1069,11.4375,11.875,17.66186,-3.4375,0.003028396
61010.1094,11.375,12.0,17.63215,-3.625,0.003040855
61010.1119,11.3125,11.9375,17.60918,-3.875,0.003043969
61010.1144,11.3125,12.0,17.58471,-3.625,0.003067329
61010.1169,11.25,12.0,17.54728,-3.8125,0.003079787
61010.1194,11.25,12.0,17.48874,-3.875,0.003070443
61010.1219,11.375,11.875,17.40946,-3.875,0.00311249
61010.1244,11.4375,11.9375,17.31948,-3.875,0.00311249
61010.1269,11.125,11.9375,17.23457,-3.875,0.00311249
61010.1294,11.375,12.0,17.16927,-3.9375,0.003117162
61010.1319,11.3125,11.8125,17.13042,-3.5625,0.003107819
61010.1344,11.25,11.9375,17.11423,-3.625,0.003123392
61010.1369,11.4375,12.0,17.10864,-3.75,0.003079787
61010.1394,11.375,11.875,17.09948,-3.875,0.003070443
61010.1419,11.4375,11.8125,17.07742,-3.625,0.003072001
61010.1444,11.25,11.8125,17.04241,-3.75,0.0030611
61010.1469,11.4375,11.8125,17.0034,-3.4375,0.003075115
61010.1494,11.3125,11.8125,16.97403,-3.5625,0.003033068
61010.1519,11.375,11.9375,16.96651,-3.625,0.003005037
61010.1544,11.1875,11.8125,16.98676,-3.8125,0.002986349
61010.1569,11.4375,11.8125,17.03307,-3.8125,0.003019052
61010.1594,11.25,11.8125,17.09822,-3.8125,0.003050198
61010.1619,11.375,12.0,17.17361,-3.875,0.003003479
61010.1644,11.125,11.9375,17.25299,-3.875,0.002977005
61010.1669,11.4375,11.75,17.33381,-3.8125,0.002989464
61010.1694,11.25,11.9375,17.41593,-4.0625,0.003039297
61010.1719,11.375,12.0,17.49883,-3.75,0.003050198
61010.1744,11.25,11.875,17.5794,-3.4375,0.003014381
61010.1769,11.4375,11.875,17.65173,-3.6875,0.003015938
61010.1794,11.1875,11.875,17.70936,-3.8125,0.003012823
61010.1819,11.25,12.0625,17.74858,-3.625,0.002998808
61010.1844,11.375,12.0,17.77116,-4.0,0.003000365
61010.1869,11.3125,11.9375,17.78461,-4.0,0.002991021
61010.1894,11.3125,12.0,17.79948,-3.75,0.003017495
61010.1919,11.3125,11.9375,17.82503,-4.0625,0.003014381
61010.1944,11.3125,11.875,17.86477,-3.625,0.003017495
61010.1969,11.4375,12.125,17.9145,-3.8125,0.003028396
61010.1994,11.375,11.8125,17.96362,-3.875,0.003033068
61010.2019,11.25,12.125,17.99921,-3.75,0.003070443
61010.2044,11.3125,11.9375,18.01148,-3.6875,0.003081344
61010.2069,11.4375,12.0,17.99792,-3.5625,0.003072001
61010.2094,11.25,12.125,17.96457,-3.3125,0.003053313
61010.2119,11.25,11.875,17.9239,-3.375,0.003036183
61010.2144,11.3125,12.0625,17.88984,-3.625,0.003081344
61010.2169,11.375,11.9375,17.87256,-3.5625,0.003092246
61010.2194,11.4375,11.875,17.8747,-3.3125,0.00309536
61010.2219,11.375,12.0625,17.89089,-3.625,0.003090688
61010.2244,11.1875,11.9375,17.9106,-3.5625,0.003079787
61010.2269,11.4375,11.9375,17.92292,-3.6875,0.003093803
61010.2294,11.3125,12.125,17.92126,-3.8125,0.003086016
61010.2319,11.4375,11.8125,17.9059,-3.875,0.003110933
61010.2344,11.3125,12.0625,17.88352,-3.5625,0.003093803
61010.2369,11.375,12.0625,17.86376,-3.8125,0.003053313
61010.2394,11.375,11.9375,17.85466,-3.6875,0.003045527
61010.2419,11.5,12.0625,17.85911,-3.5625,0.003070443
61010.2444,11.3125,12.0625,17.8737,-3.375,0.003092246
61010.2469,11.4375,12.0,17.89046,-3.6875,0.003062657
61010.2494,11.3125,12.0,17.90039,-4.0625,0.003029954
61010.2519,11.3125,11.9375,17.89685,-4.0,0.00302061
61010.2544,11.375,11.9375,17.87751,-3.625,0.003050198
61010.2569,11.375,12.0,17.84346,-3.9375,0.003047084
61010.2594,11.4375,12.0625,17.79693,-3.6875,0.003001922
61010.2619,11.3125,11.875,17.73882,-3.6875,0.003008151
61010.2644,11.25,11.9375,17.66792,-3.875,0.002998808
61010.2669,11.25,11.875,17.58232,-3.75,0.003028396
61010.2694,11.4375,12.0625,17.48233,-3.5625,0.003014381
61010.2719,11.25,11.9375,17.37297,-3.5,0.002975448
61010.2744,11.5,12.0625,17.26407,-3.5625,0.002994136
61010.2769,11.125,12.0,17.16736,-4.0,0.002986349
61010.2794,11.25,12.0625,17.0914,-4.125,0.002992578
61010.2819,11.3125,12.125,17.03717,-4.125,0.002994136
61010.2844,11.375,12.0,16.99668,-3.8125,0.002991021
61010.2869,11.5,12.0,16.95601,-3.6875,0.003001922
61010.2894,11.3125,11.9375,16.90201,-3.6875,0.003003479
61010.2919,11.3125,12.125,16.82936,-3.875,0.003031511
61010.2944,11.3125,11.875,16.74473,-3.875,0.003015938
61010.2969,11.375,12.125,16.66522,-3.9375,0.002989464
61010.2994,11.25,12.0,16.61165,-4.375,0.003028396
61010.3019,11.375,12.1875,16.5993,-4.0,0.003033068
61010.3044,11.4375,12.0625,16.63062,-3.875,0.003023724
61010.3069,11.3125,12.0625,16.69356,-3.875,0.003028396
61010.3094,11.3125,12.0625,16.76652,-3.6875,0.003031511
61010.3119,11.3125,12.0,16.82798,-4.4375,0.003076673
61010.3144,11.1875,12.125,16.86622,-4.375,0.003068886
61010.3169,11.375,12.0625,16.88468,-4.0,0.003056428
61010.3194,11.3125,12.0625,16.90026,-4.0625,0.003039297
61010.3219,11.375,12.125,16.93553,-4.0,0.003045527
61010.3244,11.25,11.875,17.00834,-3.8125,0.003089131
61010.3269,11.25,12.1875,17.1237,-4.0,0.003100032
61010.3294,11.3125,11.9375,17.27143,-4.0625,0.003106261
61010.3319,11.3125,12.0,17.43045,-3.6875,0.003053313
61010.3344,11.4375,11.9375,17.5773,-3.75,0.003022167
61010.3369,11.375,11.875,17.69478,-4.0,0.003028396
61010.3394,11.4375,12.125,17.77695,-4.125,0.003047084
61010.3419,11.3125,11.8125,17.82866,-4.0,0.00305487
61010.3444,11.25,12.0625,17.86044,-4.0,0.003014381
61010.3469,11.3125,12.0,17.88204,-4.1875,0.003006594
61010.3494,11.1875,11.875,17.89736,-4.5,0.003006594
61010.3519,11.4375,12.0625,17.9034,-4.6875,0.003011266
61010.3544,11.375,11.9375,17.8929,-5.3125,0.003008151
61010.3569,11.3125,12.125,17.85892,-4.4375,0.002958318
61010.3594,11.375,12.0,17.79897,-4.6875,0.002945859
61010.3619,11.3125,12.0,17.71667,-4.625,0.002978563
61010.3644,11.25,11.9375,17.62059,-3.5625,0.002981677
61010.3669,11.4375,12.0,17.52118,-4.0,0.002964547
61010.3694,11.25,12.0625,17.4274,-3.875,0.002950531
61010.3719,11.4375,12.0625,17.34476,-4.125,0.002973891
61010.3744,11.3125,12.0,17.27508,-3.9375,0.002958318
61010.3769,11.1875,12.125,17.2177,-3.6875,0.00296299
61010.3794,11.3125,12.125,17.17116,-4.25,0.002961432
61010.3819,11.25,12.0,17.13432,-4.3125,0.002953646
61010.3844,11.375,12.125,17.10688,-4.0625,0.002981677
61010.3869,11.4375,12.0625,17.08893,-4.4375,0.002981677
61010.3894,11.3125,12.0,17.08079,-4.4375,0.002972333
61010.3919,11.3125,12.1875,17.08279,-4.1875,0.002966104
61010.3944,11.375,12.0,17.09558,-4.25,0.002967662
61010.3969,11.25,12.0,17.12041,-4.1875,0.002994136
61010.3994,11.125,11.9375,17.15893,-4.3125,0.002975448
61010.4019,11.375,12.0,17.21248,-4.375,0.002973891
61010.4044,11.4375,11.9375,17.28112,-4.3125,0.002977005
61010.4069,11.375,12.0625,17.36243,-4.5,0.002987906
61010.4094,11.1875,12.125,17.45135,-4.375,0.003029954
61010.4119,11.25,12.0625,17.54093,-4.25,0.002998808
61010.4144,11.3125,12.125,17.6242,-4.25,0.002978563
61010.4169,11.1875,12.1875,17.69643,-4.25,0.002970776
61010.4194,11.3125,12.125,17.75681,-4.1875,0.002981677
61010.4219,11.375,12.125,17.80892,-4.3125,0.003009709
61010.4244,11.375,12.125,17.85932,-4.0625,0.002989464
61010.4269,11.25,12.0,17.91467,-3.8125,0.002989464
61010.4294,11.0625,11.9375,17.97835,-3.5625,0.002961432
61010.4319,11.1875,12.125,18.04791,-3.875,0.002961432
61010.4344,11.4375,12.125,18.11485,-3.9375,0.002984792
61010.4369,11.25,12.125,18.16696,-4.125,0.002992578
61010.4394,11.25,12.0625,18.19271,-4.5,0.002994136
61010.4419,11.3125,11.9375,18.18606,-4.0625,0.002975448
61010.4444,11.3125,12.0,18.14949,-4.4375,0.002986349
61010.4469,11.4375,11.9375,18.09367,-4.6875,0.002998808
61010.4494,11.25,11.875,18.03351,-4.25,0.003022167
61010.4519,11.4375,12.125,17.98209,-4.375,0.003029954
61010.4544,11.3125,12.0,17.9449,-3.875,0.003012823
61010.4569,11.375,12.0,17.91744,-4.4375,0.00302061
61010.4594,11.3125,12.0625,17.88718,-4.625,0.003023724
61010.4619,11.1875,12.0,17.83936,-4.5,0.003050198
61010.4644,11.4375,12.125,17.76411,-5.0,0.003033068
61010.4669,11.375,12.0,17.66145,-4.625,0.003008151
61010.4694,11.1875,12.0,17.54163,-4.0625,0.003039297
61010.4719,11.3125,12.0,17.42099,-4.3125,0.003006594
61010.4744,11.4375,11.9375,17.31488,-4.125,0.003014381
61010.4769,11.3125,12.0,17.23158,-3.6875,0.003023724
61010.4794,11.25,11.9375,17.17002,-3.3125,0.003011266
61010.4819,11.4375,12.125,17.12218,-3.75,0.003072001
61010.4844,11.3125,12.0,17.0789,-4.0,0.003072001
61010.4869,11.25,12.125,17.0355,-4.1875,0.003036183
61010.4894,11.3125,11.9375,16.99432,-4.125,0.003039297
61010.4919,11.25,12.0,16.96261,-3.5625,0.003040855
61010.4944,11.5625,12.25,16.94741,-4.1875,0.003089131
61010.4969,11.3125,11.9375,16.95028,-4.25,0.003057985
61010.4994,11.1875,12.125,16.96535,-4.375,0.003042412
61010.5019,11.375,12.125,16.98216,-4.1875,0.00303774
61010.5044,11.25,12.125,16.99165,-4.375,0.003047084
61010.5069,11.4375,12.125,16.99207,-4.875,0.003084459
61010.5094,11.1875,12.1875,16.99121,-4.875,0.003042412
61010.5119,11.3125,12.25,17.00301,-4.5,0.003026839
61010.5144,11.25,12.125,17.04044,-4.3125,0.003036183
61010.5169,11.3125,12.1875,17.10787,-4.5625,0.003048641
61010.5194,11.1875,12.125,17.19742,-4.4375,0.0030611
61010.5219,11.375,12.1875,17.29167,-4.375,0.003028396
61010.5244,11.4375,12.125,17.37137,-4.625,0.003012823
61010.5269,11.3125,12.1875,17.42471,-4.875,0.002983235
61010.5294,11.375,12.25,17.45289,-4.5625,0.002981677
61010.5319,11.0625,12.0,17.46945,-4.5,0.002991021
61010.5344,11.25,12.125,17.49327,-4.875,0.003011266
61010.5369,11.4375,12.25,17.53906,-4.8125,0.003003479
61010.5394,11.1875,12.125,17.6101,-4.75,0.002994136
61010.5419,11.375,12.125,17.6971,-4.75,0.003025282
61010.5444,11.125,12.0625,17.78327,-4.8125,0.003001922
61010.5469,11.3125,12.125,17.853,-4.5,0.003006594
61010.5494,11.25,12.125,17.89929,-4.75,0.003006594
61010.5519,11.3125,12.3125,17.92618,-5.0625,0.002992578
61010.5544,11.5,12.25,17.94511,-4.9375,0.003003479
61010.5569,11.5,12.1875,17.9676,-5.125,0.002991021
61010.5594,11.25,12.25,17.99858,-4.9375,0.003003479
61010.5619,11.3125,12.3125,18.03381,-5.25,0.003017495
61010.5644,11.375,12.1875,18.06309,-5.125,0.003008151
61010.5669,11.3125,12.1875,18.0767,-4.9375,0.003047084
61010.5694,11.25,12.1875,18.07178,-4.75,0.003012823
61010.5719,11.5625,12.25,18.05443,-4.875,0.002995693
61010.5744,11.375,12.3125,18.03675,-4.8125,0.003014381
61010.5769,11.1875,12.125,18.03019,-4.625,0.003008151
61010.5794,11.3125,12.25,18.03909,-4.6875,0.003034625
61010.5819,11.375,12.1875,18.05793,-4.375,0.003008151
61010.5844,11.3125,12.125,18.07404,-3.8125,0.002984792
61010.5869,11.4375,12.125,18.074,-4.5,0.002989464
61010.5894,11.5625,12.375,18.05086,-4.1875,0.003006594
61010.5919,11.125,12.125,18.00786,-4.0,0.003031511
61010.5944,11.375,12.1875,17.95712,-4.1875,0.002998808
61010.5969,11.3125,12.25,17.91405,-4.0,0.00298012
61010.5994,11.1875,12.1875,17.89033,-4.1875,0.002972333
61010.6019,11.375,12.25,17.88924,-4.1875,0.003000365
61010.6044,11.3125,12.125,17.90539,-4.25,0.003028396
61010.6069,11.3125,12.125,17.92864,-4.125,0.002978563
61010.6094,11.25,12.1875,17.94989,-4.125,0.00296299
61010.6119,11.25,12.125,17.96556,-4.0625,0.002981677
61010.6144,11.375,12.375,17.97859,-3.9375,0.003003479
61010.6169,11.1875,12.0625,17.99586,-3.8125,0.003015938
61010.6194,11.1875,12.25,18.02358,-3.8125,0.003000365
61010.6219,11.4375,12.25,18.06358,-4.0,0.003003479
61010.6244,11.25,12.125,18.11223,-3.75,0.002981677
61010.6269,11.25,12.0,18.1626,-3.625,0.003023724
61010.6294,11.3125,12.125,18.20827,-3.625,0.00302061
61010.6319,11.0625,12.0625,18.2468,-4.0625,0.003001922
61010.6344,11.4375,12.25,18.28092,-4.1875,0.003019052
61010.6369,11.25,12.1875,18.31694,-3.8125,0.003015938
61010.6394,11.375,12.0625,18.36123,-4.125,0.003033068
61010.6419,11.25,12.0,18.41682,-4.0625,0.003023724
61010.6444,11.1875,12.0625,18.48174,-3.75,0.003015938
61010.6469,11.25,12.125,18.5497,-3.625,0.003059542
61010.6494,11.25,12.125,18.61283,-4.0625,0.003065771
61010.6519,11.25,12.0625,18.66473,-3.8125,0.003075115
61010.6544,11.375,12.125,18.70252,-3.8125,0.003051756
61010.6569,11.4375,12.125,18.72698,-3.625,0.003045527
61010.6594,11.0625,12.125,18.74102,-4.0625,0.003081344
61010.6619,11.3125,12.125,18.74734,-4.25,0.003115605
61010.6644,11.1875,12.125,18.7467,-4.375,0.003123392
61010.6669,11.375,12.125,18.73766,-4.4375,0.003079787
61010.6694,11.3125,12.0625,18.71757,-4.6875,0.003103147
61010.6719,11.25,12.0625,18.68449,-4.4375,0.003142079
61010.6744,11.5,12.0625,18.6388,-4.3125,0.003134293
61010.6769,11.125,12.125,18.58357,-4.125,0.00315298
61010.6794,11.375,12.0625,18.52366,-4.0625,0.003114048
61010.6819,11.25,12.0625,18.4637,-4.125,0.003117162
61010.6844,11.3125,12.125,18.40605,-3.875,0.003131178
61010.6869,11.25,12.125,18.34958,-3.6875,0.003148308
61010.6894,11.3125,12.0,18.28991,-4.5,0.003162324
61010.6919,11.1875,12.125,18.22112,-4.0625,0.003114048
61010.6944,11.3125,12.1875,18.13825,-4.1875,0.003090688
61010.6969,11.25,12.0,18.03962,-4.125,0.003089131
61010.6994,11.1875,12.0625,17.92788,-4.125,0.003096917
61010.7019,11.25,12.125,17.80956,-3.75,0.003084459
61010.7044,11.125,12.0,17.69294,-3.5,0.00302061
61010.7069,11.375,12.0,17.58526,-4.0,0.003009709
61010.7094,11.3125,12.125,17.49047,-4.125,0.003031511
61010.7119,11.25,12.0625,17.40811,-4.0625,0.00305487
61010.7144,11.3125,12.1875,17.33425,-3.6875,0.003036183
61010.7169,11.3125,12.25,17.26367,-3.875,0.002994136
61010.7194,11.25,12.0625,17.19253,-4.125,0.003001922
61010.7219,11.3125,12.1875,17.1202,-4.1875,0.00298012
61010.7244,11.375,12.25,17.04957,-4.4375,0.002966104
61010.7269,11.3125,12.125,16.98542,-3.75,0.002955203
61010.7294,11.25,12.125,16.93198,-3.8125,0.002978563
61010.7319,11.25,12.25,16.89069,-4.0,0.002966104
61010.7344,11.4375,12.125,16.85932,-4.1875,0.002953646
61010.7369,11.0625,12.0,16.83298,-3.9375,0.002931844
61010.7394,11.25,12.125,16.80637,-3.875,0.002914713
61010.7419,11.375,12.1875,16.77643,-4.0625,0.002930286
61010.7444,11.1875,12.1875,16.74357,-4.0,0.002948974
61010.7469,11.375,12.1875,16.71115,-3.6875,0.002945859
61010.7494,11.3125,12.125,16.68317,-3.9375,0.002948974
61010.7519,11.4375,12.125,16.66143,-4.125,0.002925614
61010.7544,11.125,12.125,16.64343,-4.25,0.002944302
61010.7569,11.375,12.3125,16.62251,-3.6875,0.002986349
61010.7594,11.3125,12.125,16.58995,-4.125,0.00299725
61010.7619,11.1875,12.25,16.53848,-3.8125,0.003001922
61010.7644,11.1875,12.125,16.46536,-4.3125,0.002986349
61010.7669,11.1875,12.1875,16.37365,-4.0625,0.003005037
61010.7694,11.1875,12.125,16.27093,-3.5625,0.003047084
61010.7719,11.3125,12.3125,16.16615,-3.9375,0.003040855
61010.7744,11.375,12.0,16.06609,-3.875,0.003036183
61010.7769,11.25,12.0625,15.97282,-3.5625,0.002987906
61010.7794,11.1875,12.125,15.88358,-4.0,0.003000365
61010.7819,11.3125,12.0,15.79267,-3.75,0.00302061
61010.7844,11.5,12.0625,15.69458,-3.75,0.003028396
61010.7869,11.4375,12.25,15.58663,-3.75,0.003034625
61010.7894,11.3125,12.125,15.46999,-3.75,0.002998808
61010.7919,11.3125,12.25,15.34881,-3.5625,0.00302061
61010.7944,11.3125,12.3125,15.22824,-4.125,0.003042412
61010.7969,11.3125,12.1875,15.11228,-4.125,0.003051756
61010.7994,11.1875,12.0625,15.00282,-3.375,0.003068886
61010.8019,11.25,12.375,14.89981,-3.1875,0.003036183
61010.8044,11.1875,12.25,14.80252,-3.4375,0.003062657
61010.8069,11.3125,12.0625,14.71069,-3.5625,0.00309536
61010.8094,11.3125,12.25,14.62497,-3.4375,0.003096917
61010.8119,11.4375,12.125,14.54632,-3.4375,0.003086016
61010.8144,11.25,12.125,14.47507,-3.6875,0.003076673
61010.8169,11.25,12.1875,14.41033,-3.5625,0.003114048
61010.8194,11.25,12.125,14.35017,-3.375,0.00311872
61010.8219,11.25,12.125,14.29282,-3.4375,0.003082902
61010.8244,11.1875,12.125,14.23787,-3.9375,0.003067329
61010.8269,11.1875,12.25,14.18686,-3.75,0.003086016
61010.8294,11.375,12.1875,14.14255,-3.4375,0.00313585
61010.8319,11.3125,12.125,14.10724,-4.0625,0.00311249
61010.8344,11.25,12.0625,14.08073,-4.25,0.003082902
61010.8369,11.25,12.3125,14.05951,-4.0625,0.003064214
61010.8394,11.375,12.3125,14.03749,-3.625,0.003075115
61010.8419,11.125,12.1875,14.00821,-3.5625,0.00311872
61010.8444,11.1875,12.125,13.96771,-3.75,0.003096917
61010.8469,11.1875,12.25,13.9163,-4.0625,0.0030611
61010.8494,11.3125,12.25,13.85865,-3.6875,0.003039297
61010.8519,11.375,12.125,13.80171,-3.6875,0.003047084
61010.8544,11.1875,12.0625,13.75167,-3.9375,0.00309536
61010.8569,11.5,12.125,13.7112,-3.8125,0.00307823
61010.8594,11.25,12.125,13.67837,-3.875,0.003051756
61010.8619,11.25,12.0625,13.64768,-4.4375,0.003045527
61010.8644,11.1875,12.3125,13.61257,-4.375,0.003039297
61010.8669,11.25,12.0625,13.56831,-4.25,0.003059542
61010.8694,11.1875,12.1875,13.51382,-4.1875,0.003022167
61010.8719,11.3125,12.25,13.45176,-4.375,0.003005037
61010.8744,11.375,12.0625,13.38721,-4.5625,0.002987906
61010.8769,11.1875,12.1875,13.32547,-4.75,0.002998808
61010.8794,11.25,12.125,13.27049,-4.6875,0.003005037
61010.8819,11.25,12.125,13.22425,-4.875,0.002986349
61010.8844,11.25,12.125,13.18726,-4.5,0.002983235
61010.8869,11.4375,12.25,13.15984,-3.9375,0.002973891
61010.8894,11.25,12.125,13.14283,-4.125,0.002964547
61010.8919,11.375,12.3125,13.13772,-4.5625,0.002955203
61010.8944,11.25,12.1875,13.14595,-4.6875,0.002966104
61010.8969,11.1875,12.1875,13.16774,-4.25,0.002955203
61010.8994,11.3125,12.1875,13.20132,-4.1875,0.002924057
61010.9019,11.25,12.25,13.24283,-4.1875,0.002945859
61010.9044,11.1875,12.25,13.2872,-4.3125,0.00296299
61010.9069,11.3125,12.1875,13.3296,-4.625,0.002958318
61010.9094,11.3125,12.25,13.36677,-4.875,0.002973891
61010.9119,11.3125,12.1875,13.39791,-4.75,0.002964547
61010.9144,11.25,12.125,13.42451,-4.6875,0.003000365
61010.9169,11.3125,12.25,13.44934,-4.3125,0.002972333
61010.9194,11.25,12.25,13.47491,-4.1875,0.002961432
61010.9219,11.3125,12.25,13.50191,-4.4375,0.003005037
61010.9244,11.375,12.25,13.52822,-4.125,0.003028396
61010.9269,11.3125,12.25,13.54904,-4.4375,0.003048641
61010.9294,11.3125,12.0625,13.55802,-4.375,0.003023724
61010.9319,11.25,12.1875,13.54926,-3.6875,0.002994136
61010.9344,11.4375,12.3125,13.51943,-3.5625,0.003001922
61010.9369,11.3125,12.1875,13.46907,-3.9375,0.003033068
61010.9394,11.375,12.0625,13.40246,-3.875,0.003067329
61010.9419,11.25,12.25,13.32596,-3.875,0.003070443
61010.9444,11.1875,12.25,13.24518,-3.9375,0.003051756
61010.9469,11.4375,12.375,13.16235,-3.6875,0.003053313
61010.9494,11.25,12.375,13.07498,-3.375,0.003087574
61010.9519,11.1875,12.125,12.97678,-3.9375,0.003103147
61010.9544,11.5,12.375,12.86054,-3.6875,0.003065771
61010.9569,11.3125,12.3125,12.72198,-3.5,0.003082902
61010.9594,11.1875,12.3125,12.56285,-3.5625,0.003090688
61010.9619,11.4375,12.375,12.39163,-3.6875,0.003120277
61010.9644,11.1875,12.3125,12.22136,-3.9375,0.003126506
61010.9669,11.1875,12.3125,12.06548,-3.6875,0.003114048
61010.9694,11.375,12.3125,11.93336,-3.6875,0.003121834
61010.9719,11.3125,12.25,11.82752,-3.5625,0.003117162
61010.9744,11.25,12.25,11.74394,-2.8125,0.003103147
61010.9769,11.375,12.3125,11.67503,-3.375,0.003098475
61010.9794,11.3125,12.375,11.61391,-3.1875,0.003072001
61010.9819,11.0625,12.375,11.55767,-3.75,0.003070443
61010.9844,11.25,12.375,11.50799,-3.9375,0.003045527
61010.9869,11.375,12.5,11.46907,-3.625,0.003050198
61010.9894,11.25,12.1875,11.44394,-3.5625,0.003057985
61010.9919,11.375,12.5625,11.43133,-3.5,0.003043969
61010.9944,11.3125,12.25,11.42522,-3.8125,0.003043969
61010.9969,11.1875,12.5,11.41721,-3.375,0.003047084
61010.9994,11.25,12.3125,11.40084,-3.0625,0.003045527
61011.0019,11.375,12.3125,11.37561,-3.0625,0.003017495
61011.0044,11.3125,12.3125,11.34801,-3.0,0.002978563
61011.0069,11.375,12.375,11.32928,-3.25,0.002992578
61011.0094,11.25,12.375,11.33018,-3.5,0.003015938
61011.0119,11.125,12.3125,11.3556,-3.5,0.003040855
61011.0144,11.25,12.3125,11.40151,-3.3125,0.003008151
61011.0169,11.375,12.375,11.45587,-3.3125,0.002987906
61011.0194,11.375,12.3125,11.50321,-2.8125,0.002998808
61011.0219,11.25,12.5,11.53066,-3.5,0.003012823
61011.0244,11.1875,12.375,11.53271,-4.0625,0.003012823
61011.0269,11.25,12.375,11.51235,-3.9375,0.00298012
61011.0294,11.3125,12.3125,11.47841,-4.125,0.00295676
61011.0319,11.0625,12.5,11.44054,-4.4375,0.002959875
61011.0344,11.3125,12.375,11.40442,-4.4375,0.00298012
61011.0369,11.25,12.375,11.36979,-4.125,0.002981677
61011.0394,11.25,12.4375,11.33165,-4.3125,0.002972333
61011.0419,11.4375,12.5625,11.28401,-4.0,0.002973891
61011.0444,11.1875,12.375,11.22368,-3.875,0.003019052
61011.0469,11.125,12.5,11.15207,-3.6875,0.003050198
61011.0494,11.25,12.4375,11.07405,-3.5,0.003047084
61011.0519,11.375,12.4375,10.99486,-3.1875,0.003026839
61011.0544,11.3125,12.4375,10.91691,-3.0625,0.003022167
61011.0569,11.4375,12.4375,10.83869,-3.1875,0.003057985
61011.0594,11.125,12.5,10.75631,-3.375,0.003081344
61011.0619,11.3125,12.375,10.66692,-3.875,0.003087574
61011.0644,11.375,12.4375,10.57185,-4.0,0.003062657
61011.0669,11.25,12.4375,10.47729,-3.4375,0.00309536
61011.0694,11.375,12.4375,10.39203,-3.1875,0.003106261
61011.0719,11.25,12.5,10.32304,-3.5625,0.003075115
61011.0744,11.375,12.375,10.27153,-3.4375,0.003070443
61011.0769,11.1875,12.625,10.23182,-3.375,0.003079787
61011.0794,11.25,12.5,10.19391,-3.5625,0.003090688
61011.0819,11.0,12.5625,10.14887,-3.9375,0.003098475
61011.0844,11.25,12.5625,10.09415,-4.0625,0.003090688
61011.0869,11.25,12.5,10.03596,-4.5,0.003062657
61011.0894,11.25,12.5625,9.987209,-4.1875,0.003067329
61011.0919,11.3125,12.625,9.961641,-4.3125,0.003117162
61011.0944,11.3125,12.625,9.967116,-4.0,0.003129621
61011.0969,11.1875,12.625,10.00114,-3.375,0.003098475
61011.0994,11.1875,12.625,10.05132,-3.75,0.00311872
61011.1019,11.25,12.5,10.10037,-3.3125,0.003124949
61011.1044,11.3125,12.6875,10.13342,-3.625,0.003128063
61011.1069,11.375,12.5,10.14408,-3.875,0.003149866
61011.1094,11.1875,12.5,10.13627,-3.1875,0.003146751
61011.1119,11.4375,12.6875,10.12108,-3.625,0.003114048
61011.1144,11.1875,12.4375,10.11059,-3.5625,0.003109376
61011.1169,11.25,12.625,10.1116,-3.375,0.003123392
61011.1194,11.4375,12.3125,10.12261,-3.5,0.003140522
61011.1219,11.1875,12.625,10.1352,-3.6875,0.00313585
61011.1244,11.375,12.625,10.13894,-3.6875,0.00311249
61011.1269,11.1875,12.5625,10.12704,-3.3125,0.003137407
61011.1294,11.375,12.5625,10.09965,-3.5625,0.003168553
61011.1319,11.1875,12.375,10.06334,-3.5,0.003173225
61011.1344,11.25,12.625,10.02718,-3.0625,0.003140522
61011.1369,11.375,12.625,9.997746,-3.0625,0.003110933
61011.1394,11.3125,12.4375,9.975481,-3.375,0.003138965
61011.1419,11.1875,12.625,9.9545,-3.625,0.003128063
61011.1444,11.375,12.625,9.925418,-3.8125,0.003151423
61011.1469,11.3125,12.6875,9.87968,-3.1875,0.003159209
61011.1494,11.25,12.5625,9.812885,-2.875,0.003151423
61011.1519,11.375,12.5625,9.725732,-3.375,0.003128063
61011.1544,11.3125,12.5,9.622511,-3.125,0.003100032
61011.1569,11.25,12.5625,9.508341,-3.25,0.003128063
61011.1594,11.25,12.625,9.387151,-3.4375,0.003096917
61011.1619,11.3125,12.625,9.261588,-3.1875,0.003076673
61011.1644,11.1875,12.5625,9.134658,-3.3125,0.003082902
61011.1669,11.3125,12.8125,9.011727,-3.3125,0.003048641
61011.1694,11.125,12.625,8.901178,-3.6875,0.003040855
61011.1719,11.125,12.5625,8.812599,-3.625,0.003005037
61011.1744,11.3125,12.8125,8.753007,-3.375,0.003031511
61011.1769,11.1875,12.5625,8.723,-3.25,0.00305487
61011.1794,11.375,12.6875,8.714854,-3.0,0.00302061
61011.1819,11.3125,12.5625,8.714104,-3.375,0.003001922
61011.1844,11.125,12.5,8.704469,-3.1875,0.002998808
61011.1869,11.3125,12.625,8.673955,-2.6875,0.003017495
61011.1894,11.25,12.6875,8.61965,-3.125,0.00302061
61011.1919,11.25,12.8125,8.548706,-3.4375,0.003008151
61011.1944,11.375,12.75,8.475023,-3.3125,0.003008151
61011.1969,11.3125,12.75,8.413034,-3.4375,0.002977005
61011.1994,11.25,12.75,8.371379,-3.4375,0.002978563
61011.2019,11.3125,12.75,8.349226,-3.25,0.002983235
61011.2044,11.1875,12.625,8.337026,-3.3125,0.002967662
61011.2069,11.3125,12.6875,8.32118,-3.8125,0.002958318
61011.2094,11.25,12.6875,8.290463,-3.5,0.002955203
61011.2119,11.1875,12.625,8.241251,-3.5,0.002961432
61011.2144,11.3125,12.75,8.179068,-3.5625,0.002978563
61011.2169,11.3125,12.8125,8.115937,-3.375,0.002986349
61011.2194,11.3125,12.625,8.064924,-3.5625,0.002991021
61011.2219,11.4375,12.75,8.034409,-3.1875,0.00299725
61011.2244,11.3125,12.625,8.02464,-3.0625,0.002989464
61011.2269,11.25,12.8125,8.028174,-3.1875,0.003006594
61011.2294,11.3125,12.875,8.033659,-3.6875,0.003019052
61011.2319,11.1875,12.75,8.031016,-3.4375,0.00302061
61011.2344,11.1875,12.75,8.015539,-3.4375,0.003033068
61011.2369,11.3125,12.8125,7.988984,-3.5625,0.003065771
61011.2394,11.1875,12.6875,7.957483,-3.75,0.003067329
61011.2419,11.3125,12.75,7.927532,-3.375,0.003073558
61011.2444,11.1875,12.8125,7.902258,-3.6875,0.003086016
61011.2469,11.25,12.8125,7.880046,-3.375,0.003079787
61011.2494,11.0625,13.0,7.855982,-3.625,0.003106261
61011.2519,11.5625,12.875,7.82539,-3.6875,0.003131178
61011.2544,11.375,12.8125,7.78729,-3.4375,0.003126506
61011.2569,11.375,12.75,7.745987,-3.4375,0.003082902
61011.2594,11.3125,12.9375,7.709658,-3.25,0.003079787
61011.2619,11.3125,12.875,7.686681,-3.5,0.003120277
61011.2644,11.25,12.875,7.681545,-3.625,0.003093803
61011.2669,11.4375,12.75,7.692456,-3.5625,0.003079787
61011.2694,11.1875,12.875,7.711944,-3.8125,0.003073558
61011.2719,11.1875,12.8125,7.730123,-3.9375,0.003068886
61011.2744,11.4375,12.8125,7.738964,-3.625,0.003082902
61011.2769,11.25,13.0,7.735465,-3.5625,0.003081344
61011.2794,11.3125,12.9375,7.722229,-3.5,0.003050198
61011.2819,11.1875,12.875,7.705136,-3.75,0.003048641
61011.2844,11.375,12.9375,7.689785,-4.125,0.003067329
61011.2869,11.4375,13.125,7.678399,-3.4375,0.003086016
61011.2894,11.3125,13.0,7.669112,-3.5,0.003098475
61011.2919,11.25,12.8125,7.657754,-3.5625,0.003051756
61011.2944,11.25,12.875,7.640932,-3.75,0.003065771
61011.2969,11.25,12.9375,7.618759,-3.9375,0.003104704
61011.2994,11.1875,13.125,7.595364,-3.375,0.003081344
61011.3019,11.4375,12.9375,7.577022,-3.3125,0.003068886
61011.3044,11.4375,12.875,7.568819,-3.1875,0.003064214
61011.3069,11.3125,13.0,7.571754,-3.0,0.003057985
61011.3094,11.25,13.1875,7.581881,-3.1875,0.003079787
61011.3119,11.1875,12.9375,7.592082,-3.5,0.003082902
61011.3144,11.25,13.0,7.595313,-3.8125,0.003072001
61011.3169,11.375,13.1875,7.587716,-3.375,0.003031511
61011.3194,11.4375,13.0625,7.569973,-3.5625,0.003000365
61011.3219,11.25,13.0,7.546062,-3.0625,0.003012823
61011.3244,11.3125,13.1875,7.520454,-3.0,0.003012823
61011.3269,11.1875,13.125,7.495295,-3.0,0.002973891
61011.3294,11.3125,13.1875,7.469259,-3.375,0.002970776
61011.3319,11.25,13.125,7.438738,-3.3125,0.003015938
61011.3344,11.3125,13.125,7.400607,-3.375,0.003029954
61011.3369,11.1875,13.125,7.354941,-3.5,0.002998808
61011.3394,11.3125,13.0625,7.305966,-3.6875,0.002995693
61011.3419,11.3125,13.1875,7.260499,-3.4375,0.002998808
61011.3444,11.25,13.1875,7.224596,-3.3125,0.003008151
61011.3469,11.25,13.1875,7.200094,-3.0625,0.003039297
61011.3494,11.3125,13.125,7.182888,-3.25,0.003040855
61011.3519,11.25,13.25,7.164118,-3.0,0.003005037
61011.3544,11.375,13.1875,7.133797,-3.25,0.003017495
61011.3569,11.25,13.0625,7.085354,-3.5,0.003043969
61011.3594,11.25,13.125,7.019002,-3.25,0.0030611
61011.3619,11.25,13.25,6.9422,-3.5,0.003042412
61011.3644,11.25,13.125,6.867126,-3.4375,0.003031511
61011.3669,11.25,13.3125,6.805955,-3.6875,0.003031511
61011.3694,11.3125,13.25,6.765956,-3.8125,0.003040855
61011.3719,11.3125,13.25,6.746496,-3.3125,0.003043969
61011.3744,11.3125,13.25,6.739047,-3.625,0.003043969
61011.3769,11.4375,13.375,6.730099,-3.5,0.003034625
61011.3794,11.25,13.3125,6.706099,-3.4375,0.003068886
61011.3819,11.25,13.25,6.658213,-3.375,0.003090688
61011.3844,11.375,13.1875,6.585473,-3.125,0.003089131
61011.3869,11.125,13.125,6.494954,-3.5,0.003065771
61011.3894,11.5,13.1875,6.39917,-3.75,0.003073558
61011.3919,11.1875,13.1875,6.311688,-3.375,0.00309536
61011.3944,11.375,13.3125,6.24264,-3.5,0.003146751
61011.3969,11.3125,13.5625,6.195883,-3.1875,0.003156095
61011.3994,11.125,13.25,6.168804,-3.1875,0.003114048
61011.4019,11.4375,13.375,6.154757,-3.6875,0.003124949
61011.4044,11.375,13.3125,6.146761,-3.125,0.003142079
61011.4069,11.375,13.3125,6.14112,-2.9375,0.003146751
61011.4094,11.25,13.375,6.138818,-3.375,0.003148308
61011.4119,11.1875,13.3125,6.144376,-3.5625,0.003145194
61011.4144,11.25,13.375,6.162689,-3.0625,0.003128063
61011.4169,11.375,13.375,6.195487,-3.625,0.003121834
61011.4194,11.1875,13.4375,6.239436,-4.0,0.003128063
61011.4219,11.1875,13.5,6.28708,-3.75,0.003101589
61011.4244,11.3125,13.5,6.3301,-3.6875,0.003089131
61011.4269,11.1875,13.3125,6.363556,-3.75,0.003115605
61011.4294,11.25,13.375,6.388541,-3.375,0.00311872
61011.4319,11.375,13.5625,6.411845,-3.5,0.00311872
61011.4344,11.375,13.4375,6.442281,-3.375,0.003128063
61011.4369,11.25,13.375,6.485689,-3.3125,0.003101589
61011.4394,11.25,13.5625,6.541022,-3.3125,0.003092246
61011.4419,11.25,13.3125,6.599765,-3.5625,0.003121834
61011.4444,11.25,13.4375,6.649228,-3.4375,0.003132735
61011.4469,11.25,13.5,6.678265,-3.4375,0.003101589
61011.4494,11.3125,13.6875,6.682461,-3.0,0.003103147
61011.4519,11.25,13.4375,6.666059,-3.1875,0.00307823
61011.4544,11.0625,13.375,6.639515,-2.875,0.0030611
61011.4569,11.4375,13.625,6.613915,-2.8125,0.003075115
61011.4594,11.5,13.625,6.595177,-3.0625,0.003082902
61011.4619,11.25,13.625,6.581152,-3.25,0.003039297
61011.4644,11.25,13.625,6.563199,-2.4375,0.003045527
61011.4669,11.25,13.5625,6.53147,-2.5625,0.003056428
61011.4694,11.3125,13.5,6.480963,-2.875,0.003019052
61011.4719,11.3125,13.6875,6.415085,-2.875,0.003009709
61011.4744,11.4375,13.6875,6.344527,-2.8125,0.003029954
61011.4769,11.25,13.625,6.28199,-3.125,0.003034625
61011.4794,11.25,13.625,6.235584,-3.25,0.003019052
61011.4819,11.375,13.625,6.204346,-3.0625,0.003025282
61011.4844,11.375,13.75,6.178616,-3.1875,0.003019052
61011.4869,11.3125,13.5625,6.145095,-3.3125,0.002998808
61011.4894,11.375,13.75,6.094113,-2.875,0.003029954
61011.4919,11.4375,13.6875,6.025366,-2.5625,0.003051756
61011.4944,11.375,13.5,5.949085,-2.8125,0.003023724
61011.4969,11.125,13.5625,5.881814,-3.125,0.003008151
61011.4994,11.4375,13.625,5.839073,-3.5,0.003015938
61011.5019,11.375,13.625,5.828412,-2.875,0.003040855
61011.5044,11.3125,13.6875,5.846319,-3.0,0.003050198
61011.5069,11.4375,13.8125,5.880262,-2.9375,0.003042412
61011.5094,11.3125,13.6875,5.914857,-3.0625,0.00303774
61011.5119,11.25,13.6875,5.938819,-3.125,0.003033068
61011.5144,11.375,13.75,5.949317,-2.9375,0.003040855
61011.5169,11.3125,13.8125,5.95212,-2.875,0.003048641
61011.5194,11.25,13.6875,5.957762,-2.6875,0.003025282
61011.5219,11.375,13.875,5.976205,-2.9375,0.003026839
61011.5244,11.4375,13.75,6.012788,-2.9375,0.00305487
61011.5269,11.25,13.6875,6.067379,-2.5,0.003053313
61011.5294,11.3125,13.8125,6.136447,-2.6875,0.003042412
61011.5319,11.1875,13.875,6.216541,-2.3125,0.003034625
61011.5344,11.3125,13.875,6.306792,-2.8125,0.003022167
61011.5369,11.375,13.75,6.40912,-2.5625,0.003034625
61011.5394,11.375,14.0,6.526066,-2.9375,0.003079787
61011.5419,11.4375,13.8125,6.657846,-2.8125,0.003053313
61011.5444,11.1875,13.8125,6.800606,-2.4375,0.003033068
61011.5469,11.375,14.0,6.946936,-2.6875,0.003062657
61011.5494,11.3125,13.875,7.088428,-2.3125,0.003051756
61011.5519,11.1875,13.875,7.219134,-2.3125,0.003051756
61011.5544,11.25,13.9375,7.337749,-2.3125,0.003081344
61011.5569,11.4375,14.0,7.447589,-2.125,0.003051756
61011.5594,11.375,13.9375,7.55443,-2.5625,0.003029954
61011.5619,11.25,13.9375,7.663414,-2.375,0.00307823
61011.5644,11.375,14.0,7.77658,-2.5625,0.003106261
61011.5669,11.375,13.875,7.892366,-2.625,0.003086016
61011.5694,11.3125,13.9375,8.006952,-2.5625,0.003075115
61011.5719,11.1875,13.9375,8.11642,-2.4375,0.003057985
61011.5744,11.4375,13.875,8.218378,-2.4375,0.003090688
61011.5769,11.25,14.0625,8.312275,-2.5,0.003093803
61011.5794,11.375,13.9375,8.39824,-2.8125,0.003072001
61011.5819,11.25,14.1875,8.475591,-2.8125,0.003065771
61011.5844,11.25,14.125,8.542006,-3.0625,0.003086016
61011.5869,11.3125,13.9375,8.594162,-3.1875,0.003107819
61011.5894,11.3125,13.9375,8.629498,-2.5625,0.003092246
61011.5919,11.5,14.125,8.648207,-2.75,0.003057985
61011.5944,11.25,14.0,8.6541,-3.125,0.003051756
61011.5969,11.3125,13.9375,8.65366,-2.5,0.003065771
61011.5994,11.3125,14.0625,8.653614,-2.8125,0.003101589
61011.6019,11.4375,14.0,8.658234,-3.1875,0.003057985
61011.6044,11.3125,13.9375,8.667766,-3.25,0.003015938
61011.6069,11.375,14.0625,8.678699,-3.375,0.003025282
61011.6094,11.1875,14.0,8.685981,-3.125,0.00303774
61011.6119,11.25,14.1875,8.685965,-2.8125,0.003050198
61011.6144,11.375,14.0625,8.678456,-2.75,0.003051756
61011.6169,11.1875,14.0,8.667007,-3.25,0.003062657
61011.6194,11.3125,14.0625,8.657166,-3.125,0.003064214
61011.6219,11.375,14.1875,8.653706,-3.1875,0.00305487
61011.6244,11.3125,14.0625,8.65835,-3.125,0.003072001
61011.6269,11.1875,14.0625,8.669156,-2.6875,0.00307823
61011.6294,11.25,14.125,8.681765,-2.6875,0.003042412
61011.6319,11.25,14.1875,8.691945,-2.8125,0.003031511
61011.6344,11.4375,14.125,8.697883,-2.875,0.003064214
61011.6369,11.25,14.0,8.701159,-2.8125,0.003043969
61011.6394,11.25,14.125,8.705849,-2.6875,0.003034625
61011.6419,11.1875,14.25,8.716359,-2.875,0.003042412
61011.6444,11.3125,14.25,8.735105,-2.4375,0.003036183
61011.6469,11.25,14.0,8.761421,-2.5625,0.003043969
61011.6494,11.1875,14.1875,8.792082,-2.6875,0.003040855
61011.6519,11.5,13.9375,8.823056,-2.875,0.003005037
61011.6544,11.4375,14.125,8.851569,-3.25,0.003009709
61011.6569,11.3125,14.1875,8.877025,-3.0,0.003017495
61011.6594,11.3125,14.125,8.900732,-3.0625,0.003029954
61011.6619,11.25,14.125,8.924492,-2.8125,0.003015938
61011.6644,11.4375,14.125,8.949327,-3.125,0.003005037
61011.6669,11.3125,14.1875,8.975063,-2.6875,0.002992578
61011.6694,11.3125,14.125,9.001298,-2.8125,0.003005037
61011.6719,11.25,14.0,9.028979,-2.8125,0.003031511
61011.6744,11.3125,14.3125,9.061507,-2.8125,0.003029954
61011.6769,11.25,14.1875,9.104052,-2.6875,0.003036183
61011.6794,11.25,14.0625,9.161145,-3.1875,0.003022167
61011.6819,11.25,14.125,9.23346,-3.125,0.003048641
61011.6844,11.3125,14.25,9.315546,-3.0,0.003076673
61011.6869,11.25,14.0625,9.396237,-2.75,0.003059542
61011.6894,11.25,14.125,9.46196,-2.8125,0.003070443
61011.6919,11.125,14.125,9.502006,-2.4375,0.003039297
61011.6944,11.3125,14.125,9.513293,-2.1875,0.003067329
61011.6969,11.375,14.125,9.502284,-2.6875,0.003070443
61011.6994,11.125,14.1875,9.482697,-2.375,0.003059542
61011.7019,11.25,14.25,9.469782,-2.3125,0.003075115
61011.7044,11.375,13.875,9.473566,-2.6875,0.003086016
61011.7069,11.4375,14.1875,9.494185,-2.8125,0.003106261
61011.7094,11.1875,14.125,9.521727,-3.0,0.003101589
61011.7119,11.3125,14.1875,9.540631,-3.4375,0.003090688
61011.7144,11.125,14.0625,9.536794,-2.8125,0.003101589
61011.7169,11.1875,14.0,9.504102,-3.1875,0.003109376
61011.7194,11.375,14.125,9.447227,-2.625,0.003082902
61011.7219,11.4375,14.125,9.379524,-3.125,0.003068886
61011.7244,11.125,13.9375,9.317069,-2.9375,0.003057985
61011.7269,11.1875,14.1875,9.271705,-2.4375,0.003028396
61011.7294,11.3125,14.125,9.24639,-2.5625,0.003023724
61011.7319,11.1875,14.0625,9.234934,-2.75,0.003022167
61011.7344,11.1875,13.9375,9.225904,-2.6875,0.002998808
61011.7369,11.25,14.125,9.208783,-2.9375,0.002981677
61011.7394,11.4375,14.0625,9.179135,-2.875,0.002984792
61011.7419,11.3125,13.875,9.140646,-3.1875,0.002984792
61011.7444,11.375,14.0,9.103134,-3.625,0.002983235
61011.7469,11.3125,14.0,9.07788,-2.75,0.002953646
61011.7494,11.3125,14.0,9.07259,-2.875,0.002919385
61011.7519,11.375,14.125,9.088394,-2.8125,0.002928729
61011.7544,11.4375,13.9375,9.120004,-2.6875,0.00295676
61011.7569,11.25,13.75,9.158549,-2.9375,0.002944302
61011.7594,11.25,13.8125,9.195541,-2.9375,0.002933401
61011.7619,11.4375,13.8125,9.226119,-2.625,0.002955203
61011.7644,11.25,13.875,9.250152,-2.3125,0.002945859
61011.7669,11.1875,13.6875,9.271314,-2.6875,0.002970776
61011.7694,11.375,13.875,9.294774,-2.6875,0.00298012
61011.7719,11.375,13.75,9.324895,-2.75,0.002953646
61011.7744,11.375,13.625,9.363983,-2.875,0.002936516
61011.7769,11.375,13.6875,9.412209,-2.875,0.002948974
61011.7794,11.375,13.8125,9.468624,-3.3125,0.002998808
61011.7819,11.25,13.625,9.532304,-3.1875,0.002970776
61011.7844,11.25,13.6875,9.603025,-2.6875,0.00295676
61011.7869,11.1875,13.6875,9.681199,-3.1875,0.002984792
61011.7894,11.3125,13.625,9.767277,-2.9375,0.002998808
61011.7919,11.25,13.5,9.860854,-2.9375,0.003040855
61011.7944,11.3125,13.875,9.959917,-3.0,0.003050198
61011.7969,11.3125,13.625,10.06068,-2.875,0.003023724
61011.7994,11.3125,13.625,10.15806,-2.8125,0.00302061
61011.8019,11.375,13.6875,10.24665,-3.25,0.003057985
61011.8044,11.375,13.5,10.32195,-3.6875,0.003093803
61011.8069,11.3125,13.5625,10.38147,-3.5,0.003064214
61011.8094,11.1875,13.6875,10.4252,-2.875,0.003040855
61011.8119,11.25,13.5,10.45551,-2.75,0.003042412
61011.8144,11.25,13.5,10.47613,-2.5,0.003056428
61011.8169,11.4375,13.6875,10.49086,-2.8125,0.003053313
61011.8194,11.375,13.625,10.5023,-2.9375,0.00303774
61011.8219,11.1875,13.4375,10.51142,-2.6875,0.003014381
61011.8244,11.25,13.5,10.51803,-2.6875,0.003025282
61011.8269,11.375,13.625,10.52182,-2.75,0.003048641
61011.8294,11.25,13.6875,10.52355,-2.75,0.003031511
61011.8319,11.3125,13.5,10.52552,-2.75,0.003014381
61011.8344,11.4375,13.375,10.53095,-2.9375,0.003029954
61011.8369,11.1875,13.375,10.54249,-2.6875,0.003031511
61011.8394,11.4375,13.4375,10.56071,-2.625,0.003045527
61011.8419,11.0625,13.4375,10.58342,-2.875,0.003011266
61011.8444,11.0625,13.3125,10.60629,-2.6875,0.002995693
61011.8469,11.3125,13.6875,10.62472,-2.4375,0.003001922
61011.8494,11.125,13.3125,10.63609,-2.75,0.003008151
61011.8519,11.375,13.5625,10.64116,-2.5625,0.003006594
61011.8544,11.3125,13.25,10.64394,-2.9375,0.002987906
61011.8569,11.3125,13.4375,10.64988,-3.0,0.002970776
61011.8594,11.25,13.4375,10.66349,-3.3125,0.002991021
61011.8619,11.25,13.375,10.68632,-2.9375,0.003025282
61011.8644,11.3125,13.4375,10.71656,-3.0,0.003026839
61011.8669,11.25,13.25,10.75029,-3.3125,0.003015938
61011.8694,11.3125,13.5625,10.78363,-3.1875,0.002981677
61011.8719,11.3125,13.375,10.81485,-3.0625,0.002994136
61011.8744,11.1875,13.375,10.84498,-3.0625,0.003040855
61011.8769,11.3125,13.375,10.87706,-3.3125,0.003019052
61011.8794,11.3125,13.375,10.91411,-2.6875,0.003006594
61011.8819,11.25,13.375,10.95721,-3.0,0.003015938
61011.8844,11.25,13.25,11.0047,-3.3125,0.003050198
61011.8869,11.3125,13.4375,11.05272,-3.0,0.003048641
61011.8894,11.3125,13.25,11.09688,-3.1875,0.003056428
61011.8919,11.1875,13.3125,11.13409,-3.1875,0.003086016
61011.8944,11.1875,13.25,11.16374,-3.0,0.003089131
61011.8969,11.125,13.1875,11.18762,-2.5625,0.003067329
61011.8994,11.3125,13.25,11.20888,-2.5625,0.003100032
61011.9019,11.1875,13.0625,11.23079,-2.6875,0.003092246
61011.9044,11.25,13.1875,11.2558,-3.0625,0.003057985
61011.9069,11.3125,13.1875,11.28535,-3.25,0.003067329
61011.9094,11.25,13.125,11.3202,-2.625,0.003067329
61011.9119,11.25,13.1875,11.36077,-3.1875,0.003070443
61011.9144,11.25,13.0625,11.40736,-3.4375,0.003065771
61011.9169,11.3125,13.1875,11.45988,-3.5,0.003014381
61011.9194,11.3125,13.0625,11.51765,-3.125,0.003015938
61011.9219,11.25,13.0625,11.57929,-2.625,0.003029954
61011.9244,11.3125,13.125,11.64321,-2.75,0.003031511
61011.9269,11.25,13.0625,11.70827,-2.875,0.003039297
61011.9294,11.25,13.0625,11.77439,-3.25,0.003045527
61011.9319,11.375,13.0625,11.84239,-3.0,0.003023724
61011.9344,11.1875,13.0,11.9134,-2.8125,0.003031511
61011.9369,11.4375,13.0,11.9878,-2.875,0.003031511
61011.9394,11.1875,13.0625,12.0645,-3.0625,0.003000365
61011.9419,11.25,13.0625,12.14092,-2.4375,0.002994136
61011.9444,11.4375,13.0,12.21373,-2.6875,0.003012823
61011.9469,11.125,12.875,12.28008,-2.625,0.003026839
61011.9494,11.1875,12.8125,12.33876,-2.375,0.003005037
61011.9519,11.25,12.9375,12.39053,-2.8125,0.002984792
61011.9544,11.125,12.9375,12.43761,-2.8125,0.002984792
61011.9569,11.25,13.0625,12.48247,-2.8125,0.003000365
61011.9594,11.3125,13.0625,12.52664,-3.0,0.003036183
61011.9619,11.25,12.9375,12.57012,-2.5625,0.003053313
61011.9644,11.3125,13.0,12.61137,-2.5625,0.00302061
61011.9669,11.1875,12.9375,12.64797,-2.625,0.003036183
61011.9694,11.1875,12.875,12.67741,-2.8125,0.003014381
61011.9719,11.375,12.875,12.69768,-2.3125,0.003033068
61011.9744,11.3125,12.875,12.70739,-2.3125,0.003045527
61011.9769,11.125,12.75,12.70568,-2.4375,0.003028396
61011.9794,11.375,13.0,12.69221,-2.1875,0.00303774
61011.9819,11.25,12.875,12.66733,-2.3125,0.003051756
61011.9844,11.1875,12.875,12.63255,-2.375,0.003062657
61011.9869,11.25,12.9375,12.59084,-2.4375,0.003068886
61011.9894,11.3125,12.8125,12.54665,-2.5625,0.003059542
61011.9919,11.125,12.8125,12.50502,-2.5625,0.003051756
61011.9944,11.25,12.875,12.4704,-2.875,0.003087574
61011.9969,11.1875,12.75,12.44534,-2.3125,0.003087574
61011.9994,11.25,12.75,12.4297,-2.0625,0.003068886
61012.0019,11.375,12.875,12.42105,-2.4375,0.003057985
61012.0044,11.25,12.8125,12.41596,-2.375,0.003062657
61012.0069,11.125,12.9375,12.41209,-2.8125,0.003086016
61012.0094,11.25,12.875,12.40986,-2.75,0.003057985
61012.0119,11.1875,12.625,12.41315,-2.8125,0.003034625
61012.0144,11.125,12.75,12.42828,-2.1875,0.003023724
61012.0169,11.25,12.6875,12.46172,-2.375,0.003031511
61012.0194,11.25,12.6875,12.51721,-2.5,0.003025282
61012.0219,11.125,12.75,12.59344,-2.3125,0.003014381
61012.0244,11.4375,12.75,12.68359,-2.5,0.003000365
61012.0269,11.1875,12.75,12.77696,-2.375,0.002998808
61012.0294,11.1875,12.5625,12.86233,-2.4375,0.003008151
61012.0319,11.0625,12.625,12.93173,-2.4375,0.00302061
61012.0344,11.5,12.75,12.98297,-2.625,0.003028396
61012.0369,11.125,12.75,13.01978,-2.8125,0.002981677
61012.0394,11.3125,12.5625,13.04935,-2.5625,0.002973891
61012.0419,11.3125,12.8125,13.0783,-2.875,0.003029954
61012.0444,11.25,12.625,13.10908,-2.375,0.003056428
61012.0469,11.1875,12.5,13.13836,-2.1875,0.003022167
61012.0494,11.125,12.4375,13.15854,-2.4375,0.002991021
61012.0519,11.25,12.75,13.16143,-2.9375,0.003000365
61012.0544,11.25,12.6875,13.14288,-2.875,0.003019052
61012.0569,11.25,12.625,13.10549,-2.875,0.003019052
61012.0594,11.1875,12.6875,13.05832,-3.1875,0.003022167
61012.0619,11.3125,12.625,13.01339,-2.6875,0.003001922
61012.0644,11.3125,12.625,12.98057,-2.875,0.003000365
61012.0669,11.125,12.625,12.96344,-1.875,0.003023724
61012.0694,11.3125,12.625,12.95783,-2.75,0.003026839
61012.0719,11.3125,12.4375,12.95419,-2.4375,0.003019052
61012.0744,11.25,12.5,12.94207,-2.875,0.003000365
61012.0769,11.25,12.5,12.91497,-3.0,0.003003479
61012.0794,11.1875,12.625,12.87283,-3.1875,0.003009709
61012.0819,11.25,12.4375,12.82119,-3.4375,0.003012823
61012.0844,11.25,12.625,12.76767,-3.125,0.003033068
61012.0869,11.4375,12.5625,12.71788,-2.75,0.00302061
61012.0894,11.0625,12.5,12.67281,-3.3125,0.003048641
61012.0919,11.3125,12.5,12.62932,-2.875,0.003034625
61012.0944,11.1875,12.4375,12.58314,-3.1875,0.003023724
61012.0969,11.25,12.5,12.5326,-2.875,0.003003479
61012.0994,11.25,12.625,12.48095,-2.5,0.003003479
61012.1019,11.3125,12.5,12.43583,-3.25,0.003012823
61012.1044,11.25,12.3125,12.40599,-3.1875,0.003025282
61012.1069,11.3125,12.5625,12.3971,-3.625,0.003033068
61012.1094,11.125,12.5,12.40896,-3.125,0.003000365
61012.1119,11.3125,12.5,12.4354,-3.1875,0.003014381
61012.1144,11.4375,12.625,12.46722,-3.3125,0.003045527
61012.1169,11.3125,12.4375,12.49658,-3.25,0.00302061
61012.1194,11.375,12.625,12.52049,-3.6875,0.002998808
61012.1219,11.3125,12.5,12.54178,-3.25,0.003001922
61012.1244,11.4375,12.4375,12.56719,-3.375,0.003012823
61012.1269,11.25,12.5625,12.6039,-3.3125,0.003012823
61012.1294,11.25,12.4375,12.656,-3.75,0.003017495
61012.1319,11.25,12.4375,12.72302,-3.375,0.002978563
61012.1344,11.4375,12.5,12.8009,-3.1875,0.002972333
61012.1369,11.125,12.5,12.88448,-3.125,0.002970776
61012.1394,11.4375,12.5,12.97001,-3.6875,0.002989464
61012.1419,11.25,12.5,13.05634,-3.125,0.002995693
61012.1444,11.25,12.5625,13.14423,-2.9375,0.002983235
61012.1469,11.25,12.5625,13.2345,-3.25,0.002983235
61012.1494,11.125,12.375,13.32622,-2.9375,0.003000365
61012.1519,11.5,12.5,13.41629,-3.1875,0.003022167
61012.1544,11.25,12.3125,13.5003,-3.0,0.003009709
61012.1569,11.4375,12.375,13.57456,-3.125,0.003023724
61012.1594,11.0625,12.375,13.6378,-3.0625,0.003053313
61012.1619,11.1875,12.5,13.69146,-2.8125,0.003042412
61012.1644,11.3125,12.375,13.73885,-2.5,0.003036183
61012.1669,11.25,12.5,13.78316,-2.75,0.003059542
61012.1694,11.3125,12.5,13.82602,-2.6875,0.003051756
61012.1719,11.3125,12.375,13.86695,-2.4375,0.003019052
61012.1744,11.4375,12.5625,13.90411,-2.4375,0.003040855
61012.1769,11.25,12.4375,13.93564,-2.5,0.003053313
61012.1794,11.25,12.5,13.9607,-2.625,0.003048641
61012.1819,11.3125,12.4375,13.97957,-2.5625,0.003029954
61012.1844,11.1875,12.4375,13.99289,-2.625,0.003029954
61012.1869,11.375,12.625,14.00071,-3.0,0.003086016
61012.1894,11.375,12.5625,14.00209,-3.8125,0.003087574
61012.1919,11.25,12.3125,13.99602,-3.5,0.00303774
61012.1944,11.3125,12.4375,13.98297,-3.5625,0.00302061
61012.1969,11.125,12.5625,13.96644,-3.5,0.003011266
61012.1994,11.25,12.4375,13.95301,-3.6875,0.00303774
61012.2019,11.3125,12.25,13.95079,-3.25,0.003040855
61012.2044,11.4375,12.375,13.96635,-3.375,0.003033068
61012.2069,11.4375,12.3125,14.00167,-3.4375,0.003019052
61012.2094,11.125,12.375,14.05239,-3.5625,0.003014381
61012.2119,11.375,12.375,14.10878,-3.5,0.00305487
61012.2144,11.25,12.4375,14.15897,-3.8125,0.003029954
61012.2169,11.4375,12.4375,14.19344,-3.25,0.003025282
61012.2194,11.4375,12.5,14.20876,-3.9375,0.003048641
61012.2219,11.25,12.3125,14.20896,-3.5625,0.003039297
61012.2244,11.4375,12.375,14.20391,-3.4375,0.003053313
61012.2269,11.25,12.25,14.20518,-3.25,0.003028396
61012.2294,11.4375,12.5,14.22115,-3.0625,0.003006594
61012.2319,11.1875,12.3125,14.25336,-2.9375,0.00303774
61012.2344,11.3125,12.5,14.29544,-3.0625,0.003025282
61012.2369,11.25,12.4375,14.3351,-3.0,0.003022167
61012.2394,11.375,12.375,14.35847,-3.0625,0.003001922
61012.2419,11.4375,12.4375,14.35517,-2.9375,0.002992578
61012.2444,11.25,12.3125,14.32207,-2.9375,0.003022167
61012.2469,11.4375,12.5,14.26467,-3.1875,0.003031511
61012.2494,11.3125,12.3125,14.19549,-3.1875,0.003034625
61012.2519,11.4375,12.375,14.12984,-2.75,0.002994136
61012.2544,11.3125,12.375,14.08076,-2.625,0.002970776
61012.2569,11.375,12.4375,14.05452,-2.9375,0.002973891
61012.2594,11.4375,12.5625,14.04865,-3.125,0.003008151
61012.2619,11.25,12.4375,14.05306,-3.125,0.003040855
61012.2644,11.3125,12.375,14.05408,-3.4375,0.002994136
61012.2669,11.1875,12.3125,14.04004,-3.25,0.002969219
61012.2694,11.4375,12.3125,14.00622,-2.8125,0.002994136
61012.2719,11.4375,12.375,13.95702,-3.375,0.003019052
61012.2744,11.0625,12.3125,13.90454,-3.1875,0.003025282
61012.2769,11.3125,12.3125,13.8638,-3.125,0.002967662
61012.2794,11.3125,12.375,13.84648,-3.125,0.00296299
61012.2819,11.25,12.25,13.8561,-3.0625,0.003008151
61012.2844,11.5,12.5,13.88668,-2.875,0.003015938
61012.2869,11.25,12.4375,13.92605,-2.875,0.003003479
61012.2894,11.25,12.4375,13.96185,-2.625,0.002975448
61012.2919,11.25,12.5625,13.98802,-3.0,0.002989464
61012.2944,11.1875,12.375,14.00806,-3.0,0.002989464
61012.2969,11.3125,12.5625,14.03351,-2.8125,0.00299725
61012.2994,11.0625,12.375,14.07801,-2.75,0.002995693
61012.3019,11.5,12.5,14.14957,-2.375,0.002986349
61012.3044,11.3125,12.4375,14.24507,-2.25,0.00302061
61012.3069,11.375,12.5,14.34991,-2.125,0.003026839
61012.3094,11.25,12.5625,14.44319,-2.4375,0.00303774
61012.3119,11.1875,12.4375,14.50656,-2.5625,0.003025282
61012.3144,11.4375,12.5,14.53208,-2.75,0.002998808
61012.3169,11.25,12.4375,14.52552,-2.875,0.003029954
61012.3194,11.375,12.375,14.50328,-2.9375,0.003050198
61012.3219,11.25,12.3125,14.4842,-3.1875,0.003008151
61012.3244,11.3125,12.375,14.48059,-2.6875,0.002978563
61012.3269,11.375,12.5625,14.49263,-2.5625,0.002995693
61012.3294,11.3125,12.3125,14.50916,-2.0625,0.003029954
61012.3319,11.4375,12.1875,14.51431,-2.1875,0.003012823
61012.3344,11.375,12.375,14.49649,-2.25,0.003008151
61012.3369,11.25,12.5,14.45482,-2.375,0.003014381
61012.3394,11.3125,12.4375,14.39989,-2.625,0.003022167
61012.3419,11.375,12.5,14.34826,-2.625,0.003050198
61012.3444,11.3125,12.4375,14.31375,-2.4375,0.003072001
61012.3469,11.3125,12.5,14.30028,-2.6875,0.003073558
61012.3494,11.375,12.375,14.29991,-2.625,0.003014381
61012.3519,11.25,12.375,14.29743,-3.1875,0.003015938
61012.3544,11.1875,12.375,14.27892,-2.9375,0.00305487
61012.3569,11.5,12.5625,14.2397,-3.3125,0.003068886
61012.3594,11.3125,12.375,14.18746,-3.375,0.003086016
61012.3619,11.4375,12.3125,14.13886,-2.8125,0.003070443
61012.3644,11.3125,12.3125,14.1113,-3.0,0.003051756
61012.3669,11.3125,12.5625,14.11429,-3.125,0.0030611
61012.3694,11.25,12.3125,14.14475,-3.3125,0.003076673
61012.3719,11.25,12.4375,14.18888,-3.25,0.003070443
61012.3744,11.1875,12.4375,14.22935,-3.125,0.00303774
61012.3769,11.25,12.3125,14.25403,-3.0625,0.003042412
61012.3794,11.4375,12.375,14.26169,-3.0,0.003051756
61012.3819,11.1875,12.375,14.26202,-3.0625,0.003064214
61012.3844,11.4375,12.3125,14.26987,-3.3125,0.003050198
61012.3869,11.3125,12.5,14.29729,-2.8125,0.003034625
61012.3894,11.375,12.375,14.34743,-3.0,0.003056428
61012.3919,11.375,12.3125,14.41355,-2.9375,0.00303774
61012.3944,11.3125,12.4375,14.48313,-2.75,0.003040855
61012.3969,11.375,12.3125,14.54504,-3.125,0.003047084
61012.3994,11.1875,12.375,14.59539,-3.4375,0.003045527
61012.4019,11.3125,12.3125,14.63915,-2.9375,0.003079787
61012.4044,11.375,12.4375,14.68684,-3.125,0.003067329
61012.4069,11.25,12.3125,14.74811,-3.0625,0.003050198
61012.4094,11.375,12.375,14.82584,-3.125,0.003042412
61012.4119,11.1875,12.25,14.91386,-3.0625,0.003023724
61012.4144,11.375,12.375,14.99931,-3.1875,0.003073558
61012.4169,11.3125,12.25,15.06853,-3.4375,0.003047084
61012.4194,11.3125,12.25,15.11304,-3.0,0.003008151
61012.4219,11.5,12.3125,15.13273,-3.375,0.00299725
61012.4244,11.3125,12.375,15.135,-3.6875,0.003015938
61012.4269,11.5,12.25,15.13019,-3.5,0.003070443
61012.4294,11.25,12.3125,15.12604,-3.5,0.003045527
61012.4319,11.25,12.3125,15.12411,-3.1875,0.003026839
61012.4344,11.375,12.3125,15.11951,-3.5625,0.003025282
61012.4369,11.375,12.1875,15.10418,-3.375,0.00302061
61012.4394,11.4375,12.375,15.07174,-3.25,0.003067329
61012.4419,11.25,12.1875,15.02133,-3.1875,0.003043969
61012.4444,11.3125,12.4375,14.95887,-3.375,0.003047084
61012.4469,11.375,12.25,14.89509,-3.375,0.003029954
61012.4494,11.3125,12.1875,14.84157,-3.4375,0.003005037
61012.4519,11.3125,12.25,14.80658,-3.375,0.003033068
61012.4544,11.3125,12.375,14.79252,-3.5625,0.003045527
61012.4569,11.3125,12.3125,14.79596,-3.6875,0.003036183
61012.4594,11.3125,12.375,14.80971,-3.9375,0.003026839
61012.4619,11.3125,12.25,14.82603,-3.8125,0.00305487
61012.4644,11.375,12.5,14.8395,-3.8125,0.00307823
61012.4669,11.3125,12.375,14.84841,-3.6875,0.003072001
61012.4694,11.25,12.25,14.8547,-3.375,0.003072001
61012.4719,11.4375,12.125,14.86237,-3.25,0.003073558
61012.4744,11.3125,12.25,14.87549,-3.5,0.003104704
61012.4769,11.3125,12.5,14.89651,-3.125,0.003106261
61012.4794,11.3125,12.375,14.92526,-4.0625,0.003089131
61012.4819,11.3125,12.4375,14.95921,-3.9375,0.003084459
61012.4844,11.3125,12.25,14.99442,-3.75,0.003075115
61012.4869,11.4375,12.125,15.02703,-3.5625,0.003101589
61012.4894,11.4375,12.375,15.05452,-3.8125,0.003068886
61012.4919,11.375,12.3125,15.07642,-3.5625,0.003057985
61012.4944,11.3125,12.3125,15.09407,-3.625,0.003068886
61012.4969,11.25,12.375,15.10974,-3.6875,0.003057985
61012.4994,11.4375,12.3125,15.12546,-3.3125,0.00309536
61012.5019,11.375,12.25,15.14217,-3.125,0.003067329
61012.5044,11.25,12.375,15.15967,-2.9375,0.003026839
61012.5069,11.3125,12.25,15.17727,-2.875,0.003019052
61012.5094,11.1875,12.3125,15.19486,-3.125,0.003028396
61012.5119,11.4375,12.3125,15.21362,-3.125,0.00303774
61012.5144,11.25,12.3125,15.23559,-3.0,0.002983235
61012.5169,11.3125,12.375,15.26245,-3.25,0.002966104
61012.5194,11.4375,12.375,15.29384,-3.0,0.00296299
61012.5219,11.25,12.125,15.32616,-3.0625,0.002975448
61012.5244,11.25,12.25,15.35281,-2.4375,0.002998808
61012.5269,11.3125,12.25,15.36612,-2.75,0.002961432
61012.5294,11.1875,12.1875,15.36027,-2.8125,0.002928729
61012.5319,11.25,12.25,15.33405,-3.0,0.00293963
61012.5344,11.3125,12.25,15.29193,-2.75,0.002961432
61012.5369,11.375,12.3125,15.243,-2.9375,0.002952089
61012.5394,11.4375,12.3125,15.19768,-3.0,0.002934958
61012.5419,11.1875,12.1875,15.1641,-3.0,0.002934958
61012.5444,11.3125,12.4375,15.14528,-2.9375,0.002906927
61012.5469,11.1875,12.1875,15.13861,-2.9375,0.002924057
61012.5494,11.25,12.25,15.13789,-2.75,0.002924057
61012.5519,11.3125,12.25,15.13662,-2.75,0.002920942
61012.5544,11.3125,12.1875,15.13109,-2.8125,0.002938073
61012.5569,11.3125,12.3125,15.12166,-2.875,0.002925614
61012.5594,11.3125,12.375,15.11166,-3.25,0.002953646
61012.5619,11.4375,12.3125,15.10474,-3.125,0.002964547
61012.5644,11.3125,12.3125,15.10229,-3.0,0.002959875
61012.5669,11.5,12.375,15.10229,-3.3125,0.002983235
61012.5694,11.3125,12.3125,15.10049,-3.1875,0.002989464
61012.5719,11.375,12.375,15.09322,-3.0625,0.003017495
61012.5744,11.375,12.375,15.08023,-2.8125,0.002991021
61012.5769,11.3125,12.375,15.06598,-3.0625,0.002987906
61012.5794,11.3125,12.375,15.05824,-3.3125,0.003023724
61012.5819,11.3125,12.25,15.0648,-3.375,0.003034625
61012.5844,11.4375,12.375,15.08934,-3.8125,0.003047084
61012.5869,11.1875,12.25,15.12921,-3.5,0.003015938
61012.5894,11.4375,12.375,15.17576,-4.0,0.003031511
61012.5919,11.375,12.3125,15.2177,-3.25,0.00305487
61012.5944,11.375,12.3125,15.2458,-3.1875,0.003042412
61012.5969,11.375,12.375,15.25678,-2.875,0.003075115
61012.5994,11.1875,12.3125,15.25446,-2.5625,0.003039297
61012.6019,11.3125,12.375,15.24782,-2.25,0.003031511
61012.6044,11.375,12.375,15.24668,-2.625,0.003045527
61012.6069,11.4375,12.4375,15.25717,-2.625,0.003086016
61012.6094,11.3125,12.375,15.27897,-2.8125,0.003106261
61012.6119,11.1875,12.3125,15.30559,-2.8125,0.003079787
61012.6144,11.4375,12.375,15.32748,-2.9375,0.003096917
61012.6169,11.375,12.375,15.33622,-3.4375,0.003079787
61012.6194,11.3125,12.25,15.32805,-3.4375,0.003123392
61012.6219,11.3125,12.3125,15.30524,-3.25,0.003137407
61012.6244,11.4375,12.4375,15.27478,-3.0625,0.003114048
61012.6269,11.1875,12.25,15.24533,-3.375,0.003128063
61012.6294,11.1875,12.3125,15.22393,-2.875,0.003129621
61012.6319,11.1875,12.3125,15.21392,-3.1875,0.003171668
61012.6344,11.25,12.3125,15.21449,-3.0625,0.003156095
61012.6369,11.375,12.25,15.22205,-2.5,0.003107819
61012.6394,11.25,12.25,15.23215,-2.8125,0.003128063
61012.6419,11.25,12.375,15.24111,-2.9375,0.00311249
61012.6444,11.3125,12.25,15.24687,-3.125,0.003101589
61012.6469,11.1875,12.375,15.24889,-3.125,0.003090688
61012.6494,11.1875,12.25,15.24776,-3.0625,0.003107819
61012.6519,11.25,12.1875,15.24477,-2.6875,0.003090688
61012.6544,11.5,12.3125,15.24178,-2.8125,0.003067329
61012.6569,11.375,12.25,15.24105,-2.75,0.003081344
61012.6594,11.25,12.375,15.24495,-2.75,0.003057985
61012.6619,11.375,12.3125,15.25524,-2.875,0.003043969
61012.6644,11.1875,12.3125,15.27213,-2.4375,0.003053313
61012.6669,11.25,12.4375,15.29384,-2.875,0.003045527
61012.6694,11.375,12.375,15.31688,-3.125,0.003039297
61012.6719,11.4375,12.375,15.33738,-2.6875,0.003011266
61012.6744,11.375,12.5,15.35264,-2.75,0.003005037
61012.6769,11.25,12.375,15.36255,-2.5625,0.003040855
61012.6794,11.25,12.3125,15.36964,-2.4375,0.003039297
61012.6819,11.375,12.375,15.37786,-2.5,0.003034625
61012.6844,11.375,12.3125,15.39035,-2.375,0.003006594
61012.6869,11.375,12.4375,15.40754,-2.875,0.003000365
61012.6894,11.4375,12.3125,15.42653,-2.8125,0.003040855
61012.6919,11.1875,12.375,15.44228,-3.1875,0.003043969
61012.6944,11.375,12.3125,15.45021,-3.125,0.003056428
61012.6969,11.25,12.3125,15.4489,-3.125,0.003017495
61012.6994,11.1875,12.375,15.44155,-3.0625,0.002998808
61012.7019,11.4375,12.4375,15.43498,-3.0625,0.003006594
61012.7044,11.375,12.3125,15.43697,-3.5625,0.003033068
61012.7069,11.3125,12.25,15.45261,-3.6875,0.003034625
61012.7094,11.3125,12.375,15.48185,-3.5625,0.003009709
61012.7119,11.4375,12.1875,15.51955,-3.375,0.003000365
61012.7144,11.0625,12.25,15.5581,-3.0,0.003011266
61012.7169,11.375,12.375,15.59155,-2.625,0.003028396
61012.7194,11.25,12.125,15.61917,-3.375,0.00305487
61012.7219,11.3125,12.3125,15.64641,-3.375,0.003029954
61012.7244,11.4375,12.25,15.68261,-3.875,0.003047084
61012.7269,11.25,12.25,15.73642,-3.9375,0.003048641
61012.7294,11.25,12.375,15.81099,-3.75,0.003059542
61012.7319,11.25,12.3125,15.90132,-3.4375,0.003051756
61012.7344,11.1875,12.25,15.99542,-3.5625,0.003022167
61012.7369,11.3125,12.1875,16.07874,-4.0,0.003036183
61012.7394,11.1875,12.3125,16.14,-3.4375,0.003036183
61012.7419,11.25,12.4375,16.17562,-3.5,0.003019052
61012.7444,11.25,12.3125,16.19059,-3.75,0.003011266
61012.7469,11.25,12.375,16.19556,-3.0,0.003015938
61012.7494,11.4375,12.375,16.20143,-2.875,0.003028396
61012.7519,11.375,12.3125,16.21427,-3.25,0.003023724
61012.7544,11.1875,12.375,16.23322,-2.875,0.003006594
61012.7569,11.375,12.5,16.25216,-2.9375,0.002975448
61012.7594,11.3125,12.25,16.26415,-3.1875,0.002983235
61012.7619,11.25,12.3125,16.26621,-3.125,0.003015938
61012.7644,11.3125,12.5625,16.26171,-3.4375,0.003014381
61012.7669,11.4375,12.25,16.25887,-3.125,0.002970776
61012.7694,11.1875,12.3125,16.2663,-3.1875,0.002931844
61012.7719,11.25,12.375,16.28789,-3.3125,0.002952089
61012.7744,11.4375,12.3125,16.32014,-2.875,0.002978563
61012.7769,11.25,12.25,16.35356,-3.375,0.002942745
61012.7794,11.375,12.375,16.37769,-3.1875,0.002925614
61012.7819,11.3125,12.25,16.3873,-3.625,0.002911599
61012.7844,11.3125,12.25,16.38616,-3.3125,0.002900698
61012.7869,11.375,12.3125,16.38637,-3.125,0.002934958
61012.7894,11.3125,12.3125,16.40277,-2.875,0.002930286
61012.7919,11.25,12.1875,16.44537,-2.5,0.002947417
61012.7944,11.4375,12.375,16.51326,-2.9375,0.002934958
61012.7969,11.25,12.3125,16.59345,-2.6875,0.002906927
61012.7994,11.125,12.375,16.66542,-3.0,0.002941187
61012.8019,11.375,12.4375,16.70955,-2.9375,0.002966104
61012.8044,11.1875,12.375,16.71528,-2.9375,0.002967662
61012.8069,11.3125,12.4375,16.68538,-2.625,0.002953646
61012.8094,11.4375,12.5,16.63406,-3.0625,0.002950531
61012.8119,11.25,12.3125,16.57996,-3.1875,0.002970776
61012.8144,11.25,12.4375,16.53788,-2.9375,0.002995693
61012.8169,11.3125,12.375,16.51302,-3.0625,0.002998808
61012.8194,11.4375,12.3125,16.5005,-3.125,0.002987906
61012.8219,11.25,12.5,16.4903,-2.6875,0.003028396
61012.8244,11.375,12.4375,16.47426,-3.0625,0.003043969
61012.8269,11.25,12.4375,16.45147,-2.6875,0.003050198
61012.8294,11.4375,12.1875,16.42891,-3.125,0.003048641
61012.8319,11.125,12.3125,16.41696,-3.125,0.003034625
61012.8344,11.3125,12.5,16.42254,-2.375,0.003067329
61012.8369,11.3125,12.5,16.4434,-2.75,0.003056428
61012.8394,11.125,12.3125,16.4674,-2.5,0.003064214
61012.8419,11.375,12.4375,16.47736,-2.375,0.003090688
61012.8444,11.1875,12.375,16.45918,-2.625,0.003103147
61012.8469,11.3125,12.4375,16.40937,-2.5,0.003117162
61012.8494,11.25,12.25,16.33789,-2.8125,0.003096917
61012.8519,11.375,12.4375,16.26457,-3.1875,0.003081344
61012.8544,11.3125,12.5,16.21085,-3.375,0.003043969
61012.8569,11.4375,12.4375,16.19052,-3.375,0.003076673
61012.8594,11.3125,12.5,16.20413,-2.875,0.00311872
61012.8619,11.4375,12.5,16.23952,-2.75,0.00309536
61012.8644,11.25,12.375,16.27814,-2.9375,0.003075115
61012.8669,11.25,12.5,16.30392,-2.875,0.003048641
61012.8694,11.3125,12.5,16.31015,-3.0625,0.00305487
61012.8719,11.375,12.4375,16.30146,-3.125,0.003082902
61012.8744,11.4375,12.5,16.29002,-2.6875,0.003062657
61012.8769,11.1875,12.4375,16.28848,-3.0,0.003036183
61012.8794,11.4375,12.5,16.30317,-3.0625,0.003022167
61012.8819,11.3125,12.4375,16.3313,-3.0625,0.003045527
61012.8844,11.3125,12.5,16.36276,-3.0625,0.003067329
61012.8869,11.25,12.5,16.38585,-2.9375,0.003048641
61012.8894,11.4375,12.4375,16.39319,-2.9375,0.003042412
61012.8919,11.3125,12.4375,16.3849,-2.8125,0.00302061
61012.8944,11.4375,12.5625,16.36779,-3.0,0.003033068
61012.8969,11.25,12.5,16.35087,-3.3125,0.003031511
61012.8994,11.375,12.4375,16.34019,-3.3125,0.00303774
61012.9019,11.3125,12.375,16.33571,-3.375,0.003039297
61012.9044,11.25,12.5,16.3317,-3.125,0.003029954
61012.9069,11.25,12.5625,16.32036,-2.8125,0.00303774
61012.9094,11.1875,12.5,16.2967,-3.375,0.003034625
61012.9119,11.1875,12.625,16.26178,-3.4375,0.003048641
61012.9144,11.125,12.625,16.2228,-3.3125,0.003056428
61012.9169,11.25,12.625,16.18996,-3.5625,0.003026839
61012.9194,11.375,12.375,16.17177,-3.1875,0.003051756
61012.9219,11.125,12.5625,16.1712,-3.125,0.003065771
61012.9244,11.375,12.5625,16.18445,-3.25,0.003059542
61012.9269,11.0,12.4375,16.20291,-3.625,0.003059542
61012.9294,11.3125,12.5625,16.21693,-3.625,0.0030611
61012.9319,11.0625,12.4375,16.21972,-3.6875,0.003089131
61012.9344,11.3125,12.375,16.20948,-3.375,0.003048641
61012.9369,11.1875,12.5,16.18901,-3.375,0.003033068
61012.9394,11.3125,12.625,16.16339,-2.9375,0.003059542
61012.9419,11.375,12.5625,16.13721,-3.1875,0.003073558
61012.9444,11.1875,12.375,16.11262,-3.25,0.003093803
61012.9469,11.3125,12.625,16.08933,-3.0,0.003057985
61012.9494,11.25,12.5,16.06611,-3.75,0.003067329
61012.9519,11.3125,12.4375,16.04271,-4.0,0.003062657
61012.9544,11.375,12.5,16.02138,-3.875,0.003053313
61012.9569,11.625,12.5,16.0069,-3.5625,0.00307823
61012.9594,11.25,12.4375,16.00502,-3.375,0.003050198
61012.9619,11.3125,12.6875,16.02031,-3.5625,0.003006594
61012.9644,11.3125,12.4375,16.05412,-3.375,0.003008151
61012.9669,11.25,12.5,16.10353,-3.4375,0.003048641
61012.9694,11.25,12.5,16.16202,-3.9375,0.003056428
61012.9719,11.25,12.3125,16.22136,-4.25,0.003008151
61012.9744,11.25,12.3125,16.27397,-3.75,0.003005037
61012.9769,11.3125,12.4375,16.31529,-3.6875,0.003043969
61012.9794,11.4375,12.375,16.34489,-3.8125,0.003096917
61012.9819,11.1875,12.3125,16.36615,-3.5625,0.003031511
61012.9844,11.25,12.375,16.38484,-3.1875,0.002983235
61012.9869,11.4375,12.375,16.40689,-3.625,0.002983235
61012.9894,11.25,12.375,16.43623,-3.0625,0.00296299
61012.9919,11.3125,12.5,16.47347,-3.0625,0.002978563
61012.9944,11.3125,12.4375,16.51575,-3.1875,0.002972333
61012.9969,11.3125,12.375,16.55795,-3.0,0.002970776
61012.9994,11.3125,12.5,16.59431,-3.0625,0.002998808
61013.0019,11.4375,12.4375,16.62025,-3.25,0.003001922
61013.0044,11.1875,12.375,16.63345,-3.0625,0.003017495
61013.0069,11.3125,12.5,16.63408,-3.125,0.003012823
61013.0094,11.125,12.3125,16.6243,-3.3125,0.002998808
61013.0119,11.3125,12.5,16.60736,-2.9375,0.003014381
61013.0144,11.4375,12.375,16.58708,-3.1875,0.003009709
61013.0169,11.25,12.5,16.56759,-3.3125,0.003001922
61013.0194,11.375,12.5,16.5532,-3.375,0.002991021
61013.0219,11.3125,12.625,16.5483,-3.25,0.002989464
61013.0244,11.1875,12.5,16.55658,-2.8125,0.00302061
61013.0269,11.3125,12.5,16.57987,-3.0,0.003029954
61013.0294,11.25,12.3125,16.61691,-3.1875,0.003042412
61013.0319,11.1875,12.625,16.66301,-3.0625,0.003026839
61013.0344,11.25,12.5,16.71087,-3.8125,0.00303774
61013.0369,11.125,12.3125,16.75265,-3.4375,0.003048641
61013.0394,11.4375,12.5,16.78266,-3.0625,0.003082902
61013.0419,11.3125,12.4375,16.79954,-3.3125,0.003084459
61013.0444,11.1875,12.375,16.80686,-3.625,0.003042412
61013.0469,11.375,12.375,16.81185,-3.0625,0.003022167
61013.0494,11.3125,12.625,16.82253,-3.5,0.003047084
61013.0519,11.375,12.375,16.84466,-3.0625,0.003051756
61013.0544,11.375,12.4375,16.87944,-3.1875,0.003075115
61013.0569,11.3125,12.4375,16.92312,-3.0,0.003043969
61013.0594,11.125,12.4375,16.96852,-2.625,0.003023724
61013.0619,11.375,12.625,17.00761,-2.6875,0.003028396
61013.0644,11.1875,12.5,17.03413,-2.3125,0.003051756
61013.0669,11.375,12.4375,17.04502,-1.9375,0.003064214
61013.0694,11.4375,12.4375,17.04042,-2.8125,0.00302061
61013.0719,11.25,12.5,17.02256,-2.875,0.003028396
61013.0744,11.4375,12.4375,16.99437,-2.9375,0.003050198
61013.0769,11.125,12.5625,16.95865,-2.9375,0.003045527
61013.0794,11.3125,12.375,16.91795,-2.375,0.003051756
61013.0819,11.25,12.375,16.87515,-2.8125,0.003009709
61013.0844,11.5,12.5625,16.83383,-2.9375,0.003028396
61013.0869,11.4375,12.4375,16.79782,-2.9375,0.00303774
61013.0894,11.1875,12.5,16.7701,-3.0,0.00302061
61013.0919,11.4375,12.4375,16.75107,-3.0625,0.003008151
61013.0944,11.3125,12.4375,16.73761,-2.6875,0.003015938
61013.0969,11.3125,12.5625,16.72347,-2.25,0.003051756
61013.0994,11.3125,12.375,16.70116,-2.3125,0.00303774
61013.1019,11.3125,12.6875,16.66523,-2.4375,0.003033068
61013.1044,11.375,12.625,16.61525,-2.8125,0.003033068
61013.1069,11.3125,12.5,16.55726,-3.4375,0.00303774
61013.1094,11.3125,12.5,16.50289,-3.125,0.003053313
61013.1119,11.375,12.5,16.46604,-3.0625,0.00305487
61013.1144,11.25,12.5625,16.4582,-3.1875,0.003045527
61013.1169,11.5,12.5,16.48436,-2.9375,0.003008151
61013.1194,11.25,12.5625,16.54082,-3.25,0.003015938
61013.1219,11.1875,12.4375,16.61621,-3.5,0.003029954
61013.1244,11.1875,12.625,16.69514,-3.3125,0.003031511
61013.1269,11.3125,12.5,16.76335,-2.9375,0.003045527
61013.1294,11.25,12.3125,16.81228,-3.125,0.002991021
61013.1319,11.3125,12.5,16.84146,-3.1875,0.002992578
61013.1344,11.5,12.5625,16.85804,-3.375,0.003048641
61013.1369,11.125,12.3125,16.87361,-3.1875,0.003048641
61013.1394,11.25,12.625,16.89994,-3.0625,0.003056428
61013.1419,11.4375,12.5625,16.94496,-3.0625,0.003019052
61013.1444,11.1875,12.25,17.01053,-3.3125,0.003005037
61013.1469,11.3125,12.625,17.0925,-2.8125,0.00303774
61013.1494,11.3125,12.5,17.18245,-2.9375,0.003051756
61013.1519,11.3125,12.4375,17.27026,-2.6875,0.003062657
61013.1544,11.25,12.5625,17.34678,-2.75,0.003014381
61013.1569,11.25,12.375,17.40548,-2.8125,0.003000365
61013.1594,11.3125,12.4375,17.44326,-3.0625,0.003019052
61013.1619,11.3125,12.625,17.4605,-2.9375,0.00303774
61013.1644,11.1875,12.3125,17.46054,-3.0,0.003051756
61013.1669,11.3125,12.5625,17.44887,-3.125,0.00302061
61013.1694,11.375,12.5625,17.43191,-3.25,0.003017495
61013.1719,11.25,12.25,17.41546,-2.4375,0.003019052
61013.1744,11.3125,12.625,17.40298,-2.75,0.003012823
61013.1769,11.25,12.375,17.39441,-2.625,0.002986349
61013.1794,11.125,12.375,17.38598,-2.8125,0.002984792
61013.1819,11.375,12.5625,17.37136,-2.875,0.002994136
61013.1844,11.3125,12.375,17.34425,-3.25,0.002970776
61013.1869,11.4375,12.5625,17.30085,-3.375,0.00293963
61013.1894,11.375,12.5,17.24175,-3.4375,0.002925614
61013.1919,11.3125,12.4375,17.17195,-3.375,0.002936516
61013.1944,11.25,12.3125,17.09888,-3.0,0.00298012
61013.1969,11.25,12.5,17.02937,-2.9375,0.002986349
61013.1994,11.3125,12.375,16.96699,-3.3125,0.002970776
61013.2019,11.4375,12.625,16.91082,-3.5625,0.002948974
61013.2044,11.4375,12.25,16.85646,-3.375,0.002967662
61013.2069,11.25,12.5,16.79866,-3.25,0.003019052
61013.2094,11.375,12.375,16.73422,-2.75,0.003003479
61013.2119,11.3125,12.375,16.66384,-3.3125,0.002998808
61013.2144,11.3125,12.5,16.59187,-3.0,0.002994136
61013.2169,11.4375,12.4375,16.5243,-3.375,0.003003479
61013.2194,11.1875,12.5,16.46601,-3.625,0.003048641
61013.2219,11.4375,12.6875,16.41853,-3.375,0.003050198
61013.2244,11.3125,12.375,16.37959,-3.25,0.003048641
61013.2269,11.25,12.375,16.34423,-3.25,0.003017495
61013.2294,11.375,12.5,16.30676,-3.375,0.003064214
61013.2319,11.3125,12.4375,16.26272,-3.0,0.003115605
61013.2344,11.375,12.4375,16.20982,-3.4375,0.003093803
61013.2369,11.4375,12.625,16.14765,-3.6875,0.003100032
61013.2394,11.25,12.5,16.07709,-3.75,0.003087574
61013.2419,11.3125,12.5,15.99979,-3.6875,0.003121834
61013.2444,11.3125,12.5,15.91821,-3.1875,0.003131178
61013.2469,11.375,12.375,15.83616,-2.75,0.003115605
61013.2494,11.25,12.5,15.75894,-2.75,0.003114048
61013.2519,11.3125,12.625,15.69259,-2.875,0.003098475
61013.2544,11.375,12.5,15.64203,-2.75,0.003090688
61013.2569,11.1875,12.3125,15.60886,-2.3125,0.003092246
61013.2594,11.375,12.625,15.58997,-2.75,0.003107819
61013.2619,11.25,12.375,15.5778,-2.625,0.003090688
61013.2644,11.3125,12.25,15.56253,-2.8125,0.003073558
61013.2669,11.375,12.375,15.53573,-2.6875,0.003084459
61013.2694,11.25,12.5,15.49324,-3.3125,0.003064214
61013.2719,11.25,12.3125,15.43687,-3.0625,0.003064214
61013.2744,11.4375,12.5,15.3733,-3.3125,0.00303774
61013.2769,11.1875,12.5625,15.31127,-3.125,0.003006594
61013.2794,11.3125,12.5,15.25815,-2.625,0.003042412
61013.2819,11.375,12.5,15.21749,-2.5625,0.003003479
61013.2844,11.3125,12.375,15.18847,-3.125,0.002967662
61013.2869,11.4375,12.4375,15.1672,-3.625,0.002955203
61013.2894,11.4375,12.4375,15.14892,-3.375,0.002970776
61013.2919,11.25,12.5,15.12982,-3.0625,0.003001922
61013.2944,11.375,12.4375,15.10757,-2.9375,0.002977005
61013.2969,11.375,12.375,15.08076,-2.9375,0.002961432
61013.2994,11.5,12.5,15.04784,-2.75,0.002944302
61013.3019,11.4375,12.375,15.00674,-3.25,0.002953646
61013.3044,11.25,12.4375,14.95559,-3.3125,0.002972333
61013.3069,11.4375,12.5,14.89431,-3.375,0.002936516
61013.3094,11.3125,12.5,14.82608,-2.4375,0.002930286
61013.3119,11.375,12.5625,14.75747,-2.6875,0.002916271
61013.3144,11.3125,12.5,14.69679,-2.6875,0.00293963
61013.3169,11.3125,12.5,14.65103,-2.4375,0.002992578
61013.3194,11.375,12.625,14.62278,-2.875,0.002966104
61013.3219,11.3125,12.5,14.60866,-3.0,0.002944302
61013.3244,11.3125,12.625,14.60029,-2.6875,0.002969219
61013.3269,11.3125,12.4375,14.58762,-2.9375,0.002994136
61013.3294,11.25,12.5,14.56318,-3.375,0.00302061
61013.3319,11.3125,12.4375,14.52545,-3.125,0.003019052
61013.3344,11.3125,12.5,14.47972,-2.6875,0.003012823
61013.3369,11.4375,12.6875,14.43587,-3.3125,0.002992578
61013.3394,11.3125,12.4375,14.4041,-3.75,0.003028396
61013.3419,11.3125,12.5625,14.39027,-3.3125,0.003043969
61013.3444,11.4375,12.625,14.39296,-2.9375,0.003048641
61013.3469,11.25,12.4375,14.40359,-2.75,0.003057985
61013.3494,11.375,12.5,14.40952,-2.875,0.003026839
61013.3519,11.4375,12.5625,14.39881,-2.625,0.003042412
61013.3544,11.375,12.4375,14.36467,-2.375,0.003043969
61013.3569,11.4375,12.5,14.30789,-2.6875,0.00303774
61013.3594,11.25,12.625,14.23636,-3.0,0.00305487
61013.3619,11.3125,12.4375,14.16193,-2.9375,0.003048641
61013.3644,11.25,12.625,14.09606,-2.875,0.003064214
61013.3669,11.375,12.625,14.04584,-3.0625,0.003048641
61013.3694,11.25,12.4375,14.01202,-2.9375,0.003047084
61013.3719,11.3125,12.5,13.98929,-2.6875,0.003047084
61013.3744,11.3125,12.5625,13.96866,-2.875,0.003053313
61013.3769,11.375,12.5625,13.94097,-3.0,0.003089131
61013.3794,11.1875,12.375,13.89986,-2.875,0.003051756
61013.3819,11.3125,12.6875,13.84363,-2.5,0.00303774
61013.3844,11.4375,12.625,13.77514,-2.75,0.00305487
61013.3869,11.3125,12.4375,13.70038,-3.0,0.003065771
61013.3894,11.3125,12.4375,13.62609,-2.75,0.003106261
61013.3919,11.25,12.625,13.55749,-2.5,0.003073558
61013.3944,11.25,12.5625,13.49707,-2.6875,0.003056428
61013.3969,11.25,12.5,13.44424,-2.75,0.003056428
61013.3994,11.5,12.625,13.39631,-2.125,0.003068886
61013.4019,11.5,12.75,13.34984,-2.875,0.003103147
61013.4044,11.3125,12.5625,13.30198,-3.0,0.003100032
61013.4069,11.375,12.625,13.2514,-2.3125,0.0030611
61013.4094,11.25,12.5625,13.19839,-2.6875,0.003026839
61013.4119,11.375,12.5625,13.14439,-2.25,0.003053313
61013.4144,11.4375,12.625,13.0913,-2.875,0.003072001
61013.4169,11.25,12.625,13.04077,-2.3125,0.003005037
61013.4194,11.3125,12.625,12.9938,-2.1875,0.002994136
61013.4219,11.5,12.5625,12.95073,-2.375,0.002987906
61013.4244,11.25,12.625,12.91132,-2.1875,0.003001922
61013.4269,11.375,12.75,12.87486,-2.4375,0.003017495
61013.4294,11.1875,12.6875,12.84045,-2.9375,0.00298012
61013.4319,11.25,12.625,12.80696,-2.6875,0.002987906
61013.4344,11.4375,12.625,12.77333,-3.0625,0.002967662
61013.4369,11.3125,12.75,12.73876,-2.8125,0.00295676
61013.4394,11.4375,12.5,12.70282,-2.875,0.002948974
61013.4419,11.3125,12.625,12.66568,-2.4375,0.00293963
61013.4444,11.3125,12.75,12.62767,-2.25,0.00296299
61013.4469,11.375,12.5625,12.58866,-2.75,0.002961432
61013.4494,11.25,12.6875,12.54739,-2.4375,0.002953646
61013.4519,11.375,12.75,12.50117,-2.5,0.002950531
61013.4544,11.25,12.5625,12.44639,-3.0,0.002966104
61013.4569,11.375,12.75,12.37979,-2.6875,0.00298012
61013.4594,11.375,12.625,12.3001,-3.0,0.002986349
61013.4619,11.375,12.625,12.20918,-2.3125,0.003000365
61013.4644,11.25,12.8125,12.11203,-2.9375,0.002969219
61013.4669,11.375,12.625,12.01525,-2.8125,0.002973891
61013.4694,11.1875,12.6875,11.92443,-2.5625,0.002998808
61013.4719,11.375,12.6875,11.84156,-2.6875,0.003003479
61013.4744,11.3125,12.625,11.76376,-2.75,0.002998808
61013.4769,11.25,12.625,11.68397,-2.625,0.002964547
61013.4794,11.4375,12.625,11.59364,-2.75,0.00296299
61013.4819,11.1875,12.75,11.4865,-2.8125,0.002981677
61013.4844,11.3125,12.75,11.36141,-2.875,0.003019052
61013.4869,11.4375,12.6875,11.22328,-2.875,0.002994136
61013.4894,11.375,12.625,11.08124,-2.875,0.002959875
61013.4919,11.4375,12.5,10.94502,-3.25,0.002987906
61013.4944,11.1875,12.5625,10.82107,-2.9375,0.002998808
61013.4969,11.375,12.75,10.71007,-3.0,0.00299725
61013.4994,11.3125,12.625,10.60726,-3.125,0.003012823
61013.5019,11.3125,12.5,10.50488,-3.1875,0.002981677
61013.5044,11.375,12.4375,10.396,-3.375,0.002981677
61013.5069,11.375,12.625,10.27754,-3.375,0.002994136
61013.5094,11.375,12.75,10.15133,-3.5625,0.003019052
61013.5119,11.375,12.625,10.02275,-3.4375,0.003042412
61013.5144,11.375,12.6875,9.897879,-3.8125,0.003008151
61013.5169,11.375,12.5625,9.780725,-3.8125,0.003029954
61013.5194,11.3125,12.75,9.671809,-4.0,0.003040855
61013.5219,11.3125,12.75,9.568803,-3.875,0.003051756
61013.5244,11.4375,12.5,9.468729,-3.375,0.00307823
61013.5269,11.375,12.75,9.370355,-3.5625,0.003070443
61013.5294,11.3125,12.625,9.275573,-3.375,0.003087574
61013.5319,11.25,12.625,9.188875,-3.625,0.003098475
61013.5344,11.5,12.625,9.115438,-3.3125,0.00309536
61013.5369,11.375,12.625,9.05876,-3.4375,0.003087574
61013.5394,11.1875,12.5,9.019147,-3.5625,0.003104704
61013.5419,11.4375,12.6875,8.993581,-3.1875,0.00315298
61013.5444,11.25,12.625,8.977274,-2.75,0.003148308
61013.5469,11.25,12.6875,8.965757,-2.625,0.00311872
61013.5494,11.375,12.625,8.956627,-2.625,0.003110933
61013.5519,11.25,12.75,8.95003,-2.6875,0.003120277
61013.5544,11.375,12.5625,8.94799,-2.625,0.003131178
61013.5569,11.4375,12.6875,8.952852,-2.8125,0.00313585
61013.5594,11.125,12.75,8.965972,-2.9375,0.003096917
61013.5619,11.25,12.8125,8.987017,-2.75,0.003073558
61013.5644,11.25,12.75,9.014296,-3.0,0.003106261
61013.5669,11.25,12.8125,9.045468,-2.9375,0.003120277
61013.5694,11.1875,12.875,9.078297,-2.625,0.003101589
61013.5719,11.25,12.75,9.110739,-2.8125,0.003110933
61013.5744,11.25,12.75,9.14076,-3.0625,0.003059542
61013.5769,11.375,12.75,9.165916,-2.8125,0.003064214
61013.5794,11.4375,12.75,9.183479,-2.5,0.003107819
61013.5819,11.25,12.6875,9.191182,-2.4375,0.003103147
61013.5844,11.4375,12.75,9.188438,-2.25,0.003098475
61013.5869,11.5,12.75,9.177227,-2.3125,0.003056428
61013.5894,11.3125,12.8125,9.162166,-2.5625,0.003072001
61013.5919,11.4375,12.8125,9.149318,-2.5,0.003084459
61013.5944,11.3125,12.6875,9.144008,-2.625,0.0030611
61013.5969,11.25,12.9375,9.148591,-2.6875,0.003073558
61013.5994,11.4375,12.8125,9.161169,-3.0,0.00303774
61013.6019,11.375,12.8125,9.17603,-2.4375,0.00303774
61013.6044,11.375,12.875,9.185651,-2.8125,0.003047084
61013.6069,11.3125,12.8125,9.183592,-2.5625,0.00305487
61013.6094,11.5,13.0,9.167024,-2.5,0.0030611
61013.6119,11.375,12.625,9.137736,-2.5,0.003033068
61013.6144,11.375,12.8125,9.101247,-2.625,0.003059542
61013.6169,11.25,12.9375,9.064436,-2.375,0.003084459
61013.6194,11.3125,12.9375,9.032757,-2.5625,0.003081344
61013.6219,11.4375,12.875,9.008342,-3.0,0.003075115
61013.6244,11.3125,12.6875,8.989844,-2.5625,0.003067329
61013.6269,11.375,12.8125,8.973995,-2.875,0.003081344
61013.6294,11.25,12.6875,8.958,-3.125,0.003065771
61013.6319,11.3125,12.8125,8.941639,-3.1875,0.003050198
61013.6344,11.3125,12.6875,8.928054,-3.0,0.003031511
61013.6369,11.25,12.75,8.922538,-2.9375,0.003053313
61013.6394,11.375,12.875,8.930294,-3.375,0.00309536
61013.6419,11.3125,12.8125,8.953811,-3.0,0.003070443
61013.6444,11.25,13.0,8.991351,-3.3125,0.003056428
61013.6469,11.3125,12.875,9.03694,-3.0625,0.003031511
61013.6494,11.25,13.0,9.082051,-2.9375,0.003029954
61013.6519,11.5,12.8125,9.118229,-3.375,0.003067329
61013.6544,11.3125,12.75,9.139343,-3.25,0.003023724
61013.6569,11.375,12.75,9.143083,-3.25,0.002998808
61013.6594,11.1875,12.9375,9.130882,-3.0625,0.00299725
61013.6619,11.125,12.8125,9.10679,-3.125,0.00302061
61013.6644,11.125,13.0,9.075904,-2.8125,0.0030611
61013.6669,11.375,13.0625,9.042962,-3.625,0.003040855
61013.6694,11.1875,13.0,9.011349,-3.8125,0.003009709
61013.6719,11.25,12.8125,8.982755,-3.75,0.002984792
61013.6744,11.375,12.875,8.956993,-3.3125,0.003011266
61013.6769,11.1875,12.875,8.931969,-3.6875,0.003033068
61013.6794,11.5,13.0,8.903912,-3.5,0.002998808
61013.6819,11.1875,12.75,8.867919,-3.6875,0.002998808
61013.6844,11.375,13.0,8.81911,-3.1875,0.002977005
61013.6869,11.3125,12.875,8.754215,-3.1875,0.002969219
61013.6894,11.375,13.0,8.673177,-2.75,0.002986349
61013.6919,11.4375,13.0,8.579888,-2.75,0.002978563
61013.6944,11.375,12.75,8.481501,-3.1875,0.003003479
61013.6969,11.375,12.8125,8.386271,-3.8125,0.003000365
61013.6994,11.375,13.0,8.300607,-3.6875,0.00299725
61013.7019,11.25,13.0,8.226472,-3.6875,0.002994136
61013.7044,11.375,13.0,8.160583,-3.375,0.003012823
61013.7069,11.4375,12.875,8.095879,-2.75,0.003036183
61013.7094,11.25,13.0625,8.024992,-2.875,0.003028396
61013.7119,11.1875,12.9375,7.944251,-3.125,0.003062657
61013.7144,11.4375,12.9375,7.856288,-3.125,0.00309536
61013.7169,11.25,12.9375,7.769851,-3.125,0.003087574
61013.7194,11.3125,13.0625,7.696595,-2.9375,0.0030611
61013.7219,11.3125,13.0,7.646001,-2.9375,0.00305487
61013.7244,11.5,12.8125,7.620673,-2.875,0.003103147
61013.7269,11.3125,12.8125,7.614314,-3.125,0.003064214
61013.7294,11.3125,13.0,7.613583,-3.1875,0.003019052
61013.7319,11.125,12.9375,7.603392,-3.25,0.00302061
61013.7344,11.375,13.1875,7.573227,-3.375,0.003047084
61013.7369,11.3125,12.9375,7.521892,-3.625,0.003070443
61013.7394,11.1875,12.9375,7.458184,-3.375,0.00303774
61013.7419,11.3125,12.9375,7.397171,-3.5625,0.003012823
61013.7444,11.1875,13.0625,7.35327,-3.4375,0.002998808
61013.7469,11.25,13.0,7.333516,-3.5625,0.003042412
61013.7494,11.25,13.0625,7.333842,-3.6875,0.003076673
61013.7519,11.3125,12.875,7.340244,-3.625,0.003043969
61013.7544,11.25,12.875,7.334498,-3.375,0.003022167
61013.7569,11.3125,12.9375,7.301648,-3.3125,0.003022167
61013.7594,11.25,13.0625,7.236052,-2.8125,0.003042412
61013.7619,11.0625,13.25,7.143364,-3.125,0.003053313
61013.7644,11.3125,12.9375,7.037491,-3.25,0.003031511
61013.7669,11.1875,13.0625,6.934405,-2.8125,0.003031511
61013.7694,11.375,13.125,6.845704,-3.0,0.003003479
61013.7719,11.25,13.125,6.774763,-2.6875,0.003033068
61013.7744,11.375,13.125,6.717176,-2.9375,0.003050198
61013.7769,11.125,13.1875,6.664756,-2.875,0.003019052
61013.7794,11.3125,13.125,6.610523,-2.75,0.00302061
61013.7819,11.4375,13.0625,6.552128,-2.6875,0.003014381
61013.7844,11.1875,13.0625,6.49223,-2.4375,0.00302061
61013.7869,11.5,13.375,6.435741,-2.75,0.003017495
61013.7894,11.3125,13.0625,6.386197,-2.75,0.003022167
61013.7919,11.4375,13.125,6.343504,-2.625,0.003034625
61013.7944,11.1875,13.0,6.30431,-2.6875,0.003022167
61013.7969,11.4375,13.25,6.264958,-2.9375,0.003056428
61013.7994,11.1875,13.125,6.224835,-2.625,0.003048641
61013.8019,11.5625,13.0,6.187985,-3.1875,0.003064214
61013.8044,11.3125,12.9375,6.161599,-2.8125,0.003079787
61013.8069,11.375,13.25,6.152012,-2.625,0.003072001
61013.8094,11.3125,13.1875,6.160417,-2.875,0.003081344
61013.8119,11.125,13.1875,6.180957,-2.5,0.003092246
61013.8144,11.375,13.3125,6.202726,-2.8125,0.003086016
61013.8169,11.1875,13.1875,6.214796,-2.625,0.003068886
61013.8194,11.4375,13.25,6.211974,-2.875,0.003079787
61013.8219,11.25,13.0625,6.197814,-2.75,0.003096917
61013.8244,11.375,13.375,6.183109,-2.5625,0.00303774
61013.8269,11.1875,13.3125,6.180164,-3.0,0.003003479
61013.8294,11.25,13.3125,6.195613,-2.9375,0.003023724
61013.8319,11.25,13.125,6.225799,-3.25,0.003064214
61013.8344,11.375,13.3125,6.257361,-2.9375,0.003059542
61013.8369,11.25,13.25,6.273018,-2.875,0.003012823
61013.8394,11.1875,13.3125,6.260131,-2.625,0.002998808
61013.8419,11.4375,13.25,6.217605,-3.0625,0.003017495
61013.8444,11.125,13.4375,6.157597,-3.125,0.003040855
61013.8469,11.5,13.4375,6.100844,-2.875,0.003047084
61013.8494,11.125,13.25,6.067757,-3.0,0.003011266
61013.8519,11.4375,13.3125,6.069526,-3.0,0.003009709
61013.8544,11.3125,13.375,6.103389,-2.8125,0.003009709
61013.8569,11.4375,13.5,6.154441,-2.9375,0.003039297
61013.8594,11.375,13.5,6.20283,-2.875,0.0030611
61013.8619,11.3125,13.5625,6.232785,-3.4375,0.003034625
61013.8644,11.25,13.4375,6.239189,-3.0625,0.003036183
61013.8669,11.3125,13.5,6.228374,-2.9375,0.003028396
61013.8694,11.3125,13.3125,6.213385,-2.75,0.003048641
61013.8719,11.375,13.5625,6.206296,-2.6875,0.003064214
61013.8744,11.3125,13.5625,6.211587,-2.75,0.003029954
61013.8769,11.125,13.5,6.223977,-2.3125,0.00305487
61013.8794,11.3125,13.5,6.231647,-2.4375,0.0030611
61013.8819,11.375,13.4375,6.222817,-2.5,0.003076673
61013.8844,11.3125,13.4375,6.192534,-2.8125,0.003064214
61013.8869,11.4375,13.6875,6.145911,-2.0625,0.003056428
61013.8894,11.4375,13.5,6.096622,-2.125,0.003090688
61013.8919,11.3125,13.625,6.061076,-2.3125,0.003087574
61013.8944,11.3125,13.5,6.051638,-2.5,0.003087574
61013.8969,11.3125,13.6875,6.071759,-2.6875,0.003089131
61013.8994,11.1875,13.5625,6.115454,-3.25,0.00309536
61013.9019,11.3125,13.4375,6.170788,-3.125,0.003110933
61013.9044,11.1875,13.5,6.225753,-3.1875,0.003093803
61013.9069,11.5,13.5625,6.273245,-2.6875,0.003092246
61013.9094,11.0625,13.6875,6.313244,-2.5625,0.003045527
61013.9119,11.375,13.5,6.351002,-2.8125,0.003068886
61013.9144,11.25,13.5625,6.39291,-2.625,0.003070443
61013.9169,11.3125,13.5625,6.441932,-2.4375,0.003067329
61013.9194,11.3125,13.5625,6.495264,-2.6875,0.003075115
61013.9219,11.25,13.75,6.544973,-2.5625,0.003017495
61013.9244,11.25,13.5625,6.581474,-2.5,0.003009709
61013.9269,11.25,13.75,6.597677,-2.5625,0.003023724
61013.9294,11.3125,13.625,6.592065,-2.625,0.003031511
61013.9319,11.1875,13.75,6.568817,-3.125,0.003042412
61013.9344,11.4375,13.5625,6.535542,-2.875,0.003003479
61013.9369,11.3125,13.6875,6.499584,-2.5,0.003015938
61013.9394,11.4375,13.75,6.465046,-2.6875,0.003012823
61013.9419,11.3125,13.5625,6.432003,-3.0625,0.003031511
61013.9444,11.1875,13.75,6.398237,-2.6875,0.003040855
61013.9469,11.5,13.75,6.362262,-2.8125,0.002998808
61013.9494,11.1875,13.625,6.325814,-2.625,0.00299725
61013.9519,11.1875,13.875,6.294109,-2.6875,0.002992578
61013.9544,11.4375,13.8125,6.273593,-3.0625,0.00299725
61013.9569,11.4375,13.5625,6.268184,-3.375,0.003009709
61013.9594,11.25,13.875,6.276206,-3.1875,0.002983235
61013.9619,11.5,13.9375,6.289924,-3.375,0.002981677
61013.9644,11.25,13.75,6.298505,-3.4375,0.002984792
61013.9669,11.375,13.75,6.293049,-3.8125,0.002972333
61013.9694,11.25,14.0,6.2714,-3.875,0.002970776
61013.9719,11.3125,13.6875,6.240041,-4.0,0.002966104
61013.9744,11.375,13.875,6.211735,-3.1875,0.002995693
61013.9769,11.125,13.75,6.19981,-3.75,0.002984792
61013.9794,11.1875,13.75,6.211625,-3.375,0.002987906
61013.9819,11.25,13.875,6.244742,-3.6875,0.00298012
61013.9844,11.1875,13.75,6.287791,-3.375,0.002998808
61013.9869,11.25,13.875,6.325915,-3.5,0.003042412
61013.9894,11.3125,13.875,6.348245,-3.625,0.003023724
61013.9919,11.25,13.9375,6.35369,-3.5,0.003047084
61013.9944,11.375,13.875,6.351936,-3.75,0.0030611
61013.9969,11.3125,13.875,6.35884,-3.75,0.003047084
61013.9994,11.3125,13.875,6.388567,-3.3125,0.003079787
61014.0019,11.25,13.9375,6.446024,-2.875,0.003072001
61014.0044,11.4375,14.0,6.523646,-3.3125,0.003048641
61014.0069,11.375,13.875,6.604096,-3.5625,0.003029954
61014.0094,11.1875,14.0,6.667791,-3.5625,0.003059542
61014.0119,11.1875,13.8125,6.701576,-3.1875,0.003089131
61014.0144,11.3125,13.875,6.704499,-3.4375,0.003068886
61014.0169,11.3125,13.625,6.687888,-3.3125,0.003059542
61014.0194,11.25,13.875,6.669839,-3.125,0.003019052
61014.0219,11.375,13.9375,6.666878,-3.1875,0.003019052
61014.0244,11.3125,14.125,6.686735,-3.5625,0.003051756
61014.0269,11.1875,14.0,6.725467,-3.5625,0.003048641
61014.0294,11.3125,13.875,6.769938,-3.4375,0.0030611
61014.0319,11.375,14.0625,6.804118,-3.25,0.003029954
61014.0344,11.4375,14.0,6.816188,-3.375,0.003028396
61014.0369,11.1875,14.0625,6.803174,-3.3125,0.003040855
61014.0394,11.25,13.875,6.771462,-3.0625,0.003028396
61014.0419,11.1875,14.0,6.733488,-2.5625,0.003040855
61014.0444,11.25,14.125,6.702597,-2.9375,0.003034625
61014.0469,11.125,14.0625,6.688368,-2.875,0.003014381
61014.0494,11.25,14.0625,6.694289,-2.9375,0.003017495
61014.0519,11.3125,14.125,6.717947,-2.625,0.003015938
61014.0544,11.3125,14.125,6.753144,-2.6875,0.003011266
61014.0569,11.375,14.0,6.792671,-3.1875,0.002998808
61014.0594,11.25,14.0,6.830523,-2.4375,0.003026839
61014.0619,11.375,14.25,6.863185,-2.75,0.003036183
61014.0644,11.3125,14.125,6.88991,-2.875,0.003019052
61014.0669,11.25,14.0625,6.912308,-3.0625,0.003031511
61014.0694,11.375,14.25,6.933519,-3.1875,0.00303774
61014.0719,11.3125,14.1875,6.957075,-3.25,0.003098475
61014.0744,11.25,14.1875,6.985611,-3.1875,0.003096917
61014.0769,11.25,14.125,7.019784,-3.4375,0.003086016
61014.0794,11.1875,14.125,7.057863,-3.25,0.003076673
61014.0819,11.3125,14.125,7.09642,-3.125,0.00309536
61014.0844,11.3125,14.0,7.13187,-3.5,0.003140522
61014.0869,11.375,14.1875,7.162383,-3.1875,0.003124949
61014.0894,11.3125,14.1875,7.189198,-2.8125,0.003086016
61014.0919,11.3125,14.0625,7.216532,-3.375,0.003076673
61014.0944,11.3125,14.3125,7.249986,-3.25,0.003124949
61014.0969,11.3125,14.125,7.294202,-3.3125,0.003163881
61014.0994,11.25,14.375,7.350781,-3.125,0.003117162
61014.1019,11.3125,14.1875,7.417735,-2.875,0.003110933
61014.1044,11.25,14.1875,7.490604,-2.5,0.003106261
61014.1069,11.625,14.125,7.564648,-2.625,0.003124949
61014.1094,11.25,14.1875,7.636852,-2.625,0.003129621
61014.1119,11.3125,14.3125,7.706641,-2.5625,0.003106261
61014.1144,11.3125,14.25,7.774969,-2.25,0.003098475
61014.1169,11.25,14.3125,7.842361,-2.3125,0.003059542
61014.1194,11.375,14.25,7.90737,-2.625,0.003072001
61014.1219,11.25,14.1875,7.966477,-3.0625,0.003098475
61014.1244,11.3125,14.3125,8.015705,-2.625,0.003092246
61014.1269,11.3125,14.4375,8.053242,-2.8125,0.003065771
61014.1294,11.1875,14.25,8.081306,-3.0,0.003043969
61014.1319,11.25,14.4375,8.106174,-3.125,0.003056428
61014.1344,11.375,14.25,8.135788,-2.9375,0.003050198
61014.1369,11.1875,14.25,8.176173,-2.875,0.003017495
61014.1394,11.375,14.25,8.228467,-2.9375,0.003028396
