Time (s),Venous (mmHg),FAP (mmHg),Arterial - Pigtail (mmHg),Swan (mmHg),EKG (mV)
56119.4644,10.875,56.625,20.09116,-1.5625,0.003065771
56119.4669,10.8125,56.125,20.16718,-1.5,0.003084459
56119.4694,10.9375,55.6875,20.39844,-1.4375,0.003090688
56119.4719,11.0625,55.25,20.43332,-1.5625,0.003065771
56119.4744,11.0,54.625,20.00064,-1.25,0.003045527
56119.4769,10.8125,54.0625,19.09312,-0.875,0.003050198
56119.4794,10.875,53.375,18.01075,-1.0,0.003072001
56119.4819,10.8125,53.0,17.2289,-0.9375,0.003068886
56119.4844,10.875,52.5,17.15438,-1.375,0.003043969
56119.4869,10.8125,52.125,17.89914,-1.5625,0.003026839
56119.4894,11.0625,51.6875,19.19721,-1.5625,0.003026839
56119.4919,11.0,51.5,20.51541,-1.125,0.003040855
56119.4944,10.875,51.1875,21.30574,-1.1875,0.003034625
56119.4969,10.875,50.8125,21.27148,-1.25,0.003014381
56119.4994,11.0,50.6875,20.51151,-1.1875,0.003015938
56119.5019,10.9375,50.25,19.47094,-1.5625,0.003028396
56119.5044,10.9375,50.0,18.72568,-1.8125,0.003039297
56119.5069,11.0,49.75,18.71152,-1.875,0.00315298
56119.5094,10.875,49.3125,19.5312,-1.9375,0.002463096
56119.5119,11.0625,48.9375,20.92769,-1.75,0.004264893
56119.5144,10.875,48.625,22.42545,-1.625,0.0006457265
56119.5169,11.125,48.25,23.55942,-1.5625,-0.01354751
56119.5194,11.0,48.125,24.07541,-1.6875,-0.01270501
56119.5219,11.1875,47.875,24.01088,-1.5,-0.01294639
56119.5244,11.0625,47.5625,23.63132,-1.625,-0.009660488
56119.5269,11.25,47.25,23.2701,-1.3125,0.005288039
56119.5294,11.0625,47.0,23.16131,-2.125,0.005373691
56119.5319,11.3125,46.875,23.34575,-1.4375,0.0036264
56119.5344,11.1875,46.75,23.68483,-1.5,0.004014167
56119.5369,11.3125,46.5,23.96002,-1.5625,0.003708937
56119.5394,11.375,46.25,23.99619,-1.25,0.003623285
56119.5419,11.3125,46.0625,23.74476,-1.5625,0.003554764
56119.5444,11.1875,45.875,23.29175,-1.8125,0.003486243
56119.5469,11.3125,45.6875,22.79803,-1.875,0.003439524
56119.5494,11.375,45.625,22.4113,-1.375,0.003417721
56119.5519,11.25,45.5,22.19712,-1.5625,0.00343018
56119.5544,11.1875,45.3125,22.11998,-1.5,0.003414607
56119.5569,11.3125,45.125,22.07604,-1.375,0.003360101
56119.5594,11.25,44.8125,21.95427,-1.375,0.003338299
56119.5619,11.1875,44.75,21.69228,-1.4375,0.003321169
56119.5644,11.1875,44.75,21.30123,-1.375,0.00333207
56119.5669,11.3125,44.5,20.85314,-1.4375,0.003330513
56119.5694,11.25,44.1875,20.44255,-1.5625,0.003300924
56119.5719,11.25,44.125,20.14468,-1.1875,0.003290023
56119.5744,11.25,44.0625,19.98995,-1.3125,0.003279122
56119.5769,11.3125,44.0625,19.96357,-2.0625,0.003265106
56119.5794,11.3125,43.8125,20.02533,-2.3125,0.003229288
56119.5819,11.3125,43.6875,20.13563,-2.25,0.003185684
56119.5844,11.4375,43.6875,20.27319,-2.8125,0.003179454
56119.5869,11.4375,43.4375,20.43645,-2.75,0.003162324
56119.5894,11.375,43.375,20.63044,-2.0,0.003142079
56119.5919,11.4375,43.3125,20.84924,-2.1875,0.003121834
56119.5944,11.5,43.0625,21.06563,-2.0625,0.003093803
56119.5969,11.3125,42.9375,21.23616,-2.25,0.003084459
56119.5994,11.375,42.9375,21.32053,-2.5625,0.003100032
56119.6019,11.1875,42.8125,21.30248,-2.5,0.003090688
56119.6044,11.375,42.5,21.20146,-2.0,0.003050198
56119.6069,11.4375,42.625,21.06636,-1.8125,0.003033068
56119.6094,11.4375,42.375,20.95246,-2.0,0.00303774
56119.6119,11.5625,42.4375,20.89405,-2.125,0.003051756
56119.6144,11.4375,42.1875,20.88728,-2.3125,0.003051756
56119.6169,11.5,42.0,20.89313,-1.625,0.003022167
56119.6194,11.4375,42.0625,20.86068,-2.25,0.003014381
56119.6219,11.5625,41.9375,20.75796,-1.9375,0.003191913
56119.6244,11.5,41.8125,20.59151,-2.3125,0.002372773
56119.6269,11.5625,41.625,20.40136,-2.125,0.004629301
56119.6294,11.5,41.5,20.23187,-1.8125,4.616586e-05
56119.6319,11.25,41.4375,20.09519,-1.9375,-0.01762141
56119.6344,11.4375,41.3125,19.95094,-2.0,-0.01619648
56119.6369,11.4375,41.0625,19.71888,-2.0625,-0.01564987
56119.6394,11.5,41.125,19.3224,-1.9375,-0.01164293
56119.6419,11.5625,41.125,18.74065,-1.6875,0.00516657
56119.6444,11.5625,41.0,18.03746,-1.625,0.005470243
56119.6469,11.4375,40.75,17.34523,-2.0625,0.003640415
56119.6494,11.5625,40.75,16.80584,-1.8125,0.004196372
56119.6519,11.5625,40.5,16.49692,-1.6875,0.004042199
56119.6544,11.5625,40.5,16.385,-2.125,0.0041917
56119.6569,11.5,40.4375,16.33563,-1.6875,0.004325628
56119.6594,11.5,40.3125,16.18126,-1.75,0.004126293
56119.6619,11.5,40.25,15.81311,-1.5625,0.003627957
56119.6644,11.4375,40.1875,15.24702,-1.375,0.00327445
56119.6669,11.5,40.0625,14.62226,-1.625,0.003254205
56119.6694,11.5625,40.0,14.12915,-2.0,0.003247976
56119.6719,11.5,39.75,13.90147,-1.75,0.003269778
56119.6744,11.5,39.75,13.93338,-1.6875,0.003299367
56119.6769,11.5625,39.8125,14.07213,-1.9375,0.003316497
56119.6794,11.75,39.625,14.09755,-1.8125,0.00333207
56119.6819,11.8125,39.5,13.84996,-1.75,0.003352315
56119.6844,11.6875,39.625,13.33575,-1.875,0.003375674
56119.6869,11.5625,39.375,12.74598,-2.3125,0.003353872
56119.6894,11.6875,39.4375,12.36696,-1.6875,0.003302481
56119.6919,11.6875,39.25,12.42261,-1.8125,0.003300924
56119.6944,11.75,39.25,12.93361,-1.75,0.00330871
56119.6969,11.625,39.375,13.67501,-1.6875,0.003302481
56119.6994,11.625,38.875,14.26814,-1.8125,0.00329158
56119.7019,11.5625,39.0,14.37218,-1.625,0.003279122
56119.7044,11.5625,38.9375,13.88176,-1.5,0.003266663
56119.7069,11.75,38.6875,13.02493,-1.5,0.003276007
56119.7094,11.75,38.5625,12.30058,-1.9375,0.003266663
56119.7119,11.6875,38.625,12.27522,-1.6875,0.003244861
56119.7144,11.5625,38.4375,13.33349,-1.5625,0.003232403
56119.7169,11.5625,38.25,15.50574,-1.75,0.00323396
56119.7194,11.625,38.1875,18.46125,-1.75,0.003252647
56119.7219,11.8125,38.3125,21.67389,-1.625,0.003230845
56119.7244,11.8125,38.125,24.68023,-1.75,0.003204371
56119.7269,11.8125,38.125,27.29845,-1.8125,0.003205928
56119.7294,11.75,38.0,29.69912,-1.8125,0.003207486
56119.7319,11.6875,37.875,32.29111,-1.5625,0.003209043
56119.7344,11.625,37.75,35.48325,-1.4375,0.003191913
56119.7369,11.5625,37.6875,39.44291,-1.25,0.003360101
56119.7394,11.75,37.375,43.9752,-1.4375,0.002427278
56119.7419,11.5625,37.4375,48.58448,-1.625,0.005006168
56119.7444,11.75,37.4375,52.68691,-2.0,-0.0001998876
56119.7469,11.625,37.1875,55.86818,-1.9375,-0.02007416
56119.7494,11.625,37.1875,58.06057,-1.625,-0.01830973
56119.7519,11.625,37.125,59.55691,-1.25,-0.01834555
56119.7544,11.6875,37.0,60.86164,-1.4375,-0.01387143
56119.7569,11.875,37.0,62.45843,-0.9375,0.006208404
56119.7594,11.5625,36.75,64.60748,-1.0,0.006398394
56119.7619,11.6875,36.875,67.2635,-1.0,0.004102934
56119.7644,11.6875,36.75,70.13692,-1.75,0.004646431
56119.7669,11.4375,36.6875,72.85238,-1.6875,0.004264893
56119.7694,11.5625,36.4375,75.11851,-1.8125,0.004124736
56119.7719,11.625,36.5,76.82715,-1.9375,0.003998594
56119.7744,11.5,36.5625,78.0501,-1.4375,0.003908271
56119.7769,11.6875,36.375,78.95564,-1.9375,0.003853765
56119.7794,11.5,36.25,79.70397,-1.75,0.003821062
56119.7819,11.5625,36.25,80.38128,-1.625,0.0037759
56119.7844,11.6875,36.25,80.99905,-1.625,0.003705822
56119.7869,11.6875,36.25,81.54185,-1.875,0.003654431
56119.7894,11.625,36.1875,82.02079,-1.9375,0.003645087
56119.7919,11.75,36.125,82.49246,-1.9375,0.003624842
56119.7944,11.8125,36.0,83.03083,-1.6875,0.003579681
56119.7969,11.625,35.875,83.67402,-1.5,0.003553206
56119.7994,11.6875,35.8125,84.38461,-1.9375,0.00354542
56119.8019,11.625,35.75,85.05492,-1.875,0.003542305
56119.8044,11.6875,35.5625,85.55896,-2.0625,0.003520503
56119.8069,11.6875,35.4375,85.82258,-1.6875,0.0034878
56119.8094,11.625,35.5625,85.869,-2.375,0.003469112
56119.8119,11.625,35.6875,85.81061,-2.0,0.003462883
56119.8144,11.5,35.375,85.78789,-2.1875,0.003473784
56119.8169,11.5625,35.4375,85.88863,-2.25,0.003469112
56119.8194,11.5625,35.4375,86.09342,-1.8125,0.00344731
56119.8219,11.75,35.3125,86.27972,-1.9375,0.003428622
56119.8244,11.5,35.25,86.28425,-1.6875,0.003422393
56119.8269,11.625,35.125,85.99013,-1.75,0.003433294
56119.8294,11.5625,35.1875,85.39059,-1.75,0.003436409
56119.8319,11.5625,35.0625,84.5938,-2.1875,0.003419279
56119.8344,11.5,35.125,83.76569,-2.4375,0.003422393
56119.8369,11.4375,35.375,83.04259,-2.3125,0.003451982
56119.8394,11.5625,35.5,82.4623,-1.8125,0.003478456
56119.8419,11.5625,35.5625,81.95147,-1.6875,0.003483128
56119.8444,11.6875,36.125,81.37528,-1.9375,0.003462883
56119.8469,11.5,36.75,80.62005,-1.9375,0.003489357
56119.8494,11.5,37.875,79.6605,-2.1875,0.003534519
56119.8519,11.5625,38.75,78.57386,-1.6875,0.003556321
56119.8544,11.5625,39.5625,77.49232,-1.5,0.003726067
56119.8569,11.625,40.125,76.52232,-1.5625,0.002808817
56119.8594,11.4375,40.6875,75.68034,-2.125,0.005303612
56119.8619,11.75,41.125,74.88354,-1.375,-0.0001095642
56119.8644,11.6875,41.5625,74.00148,-1.625,-0.01934222
56119.8669,11.5,41.875,72.93879,-1.5625,-0.02346751
56119.8694,11.5,42.25,71.69902,-1.75,-0.0152403
56119.8719,11.5625,42.75,70.39,-1.4375,0.008019544
56119.8744,11.6875,43.0,69.16595,-1.5,0.007709641
56119.8769,11.6875,43.375,68.13914,-1.625,0.004750771
56119.8794,11.75,44.0,67.31493,-1.5625,0.005401722
56119.8819,11.8125,44.3125,66.59098,-1.4375,0.004830193
56119.8844,11.6875,44.6875,65.82288,-1.6875,0.004637088
56119.8869,11.5625,45.4375,64.92058,-1.8125,0.004493816
56119.8894,11.75,45.75,63.9152,-1.6875,0.00434743
56119.8919,11.6875,46.25,62.95202,-1.8125,0.004219731
56119.8944,11.6875,46.8125,62.20582,-2.1875,0.004141866
56119.8969,11.5625,47.25,61.76551,-1.8125,0.004085803
56119.8994,11.75,47.8125,61.55672,-1.5,0.00403597
56119.9019,11.5625,48.5625,61.35514,-1.9375,0.003965891
56119.9044,11.6875,49.1875,60.89272,-1.5625,0.003891141
56119.9069,11.75,49.75,60.00277,-2.0,0.003850651
56119.9094,11.75,50.25,58.72095,-2.0625,0.003824177
56119.9119,11.6875,51.0,57.27763,-1.625,0.003800817
56119.9144,11.6875,51.625,55.97524,-1.25,0.003757213
56119.9169,11.8125,52.4375,55.01174,-1.625,0.003694921
56119.9194,11.75,53.1875,54.34962,-1.9375,0.003676233
56119.9219,11.8125,53.875,53.71031,-1.3125,0.003677791
56119.9244,11.5625,54.3125,52.70864,-1.1875,0.003649759
56119.9269,11.6875,55.25,51.06227,-1.5625,0.003613941
56119.9294,11.5625,55.5625,48.76201,-1.1875,0.003582795
56119.9319,11.5625,56.25,46.10262,-1.25,0.003578123
56119.9344,11.5625,57.0,43.54512,-1.375,0.003576566
56119.9369,11.875,57.625,41.47454,-1.8125,0.003553206
56119.9394,11.875,58.1875,39.98071,-1.9375,0.003523618
56119.9419,11.8125,58.6875,38.78625,-1.5625,0.003495586
56119.9444,11.75,59.0625,37.37292,-1.375,0.003498701
56119.9469,11.625,59.5,35.25177,-1.3125,0.003508045
56119.9494,11.8125,59.875,32.24325,-1.125,0.003503373
56119.9519,11.75,60.3125,28.61996,-1.625,0.00346444
56119.9544,11.75,60.625,25.03118,-1.5,0.003458211
56119.9569,11.8125,60.9375,22.23879,-1.5,0.003461326
56119.9594,11.875,61.3125,20.79006,-1.375,0.003458211
56119.9619,11.75,61.5,20.78585,-1.6875,0.003455097
56119.9644,11.75,61.5625,21.85281,-1.5,0.003436409
56119.9669,11.75,61.875,23.32553,-1.5,0.003434852
56119.9694,11.75,62.0,24.54148,-1.8125,0.003627957
56119.9719,11.75,61.875,25.1021,-1.8125,0.002662431
56119.9744,11.875,62.1875,24.98184,-1.4375,0.005245992
56119.9769,11.5625,61.5625,24.45127,-1.6875,4.118748e-06
56119.9794,11.5625,62.0,23.87709,-1.6875,-0.02117828
56119.9819,11.6875,61.9375,23.51443,-1.75,-0.0211082
56119.9844,11.9375,62.0,23.39674,-1.8125,-0.02155203
56119.9869,11.75,62.0,23.36366,-2.0,-0.01671039
56119.9894,11.8125,61.8125,23.18904,-2.25,0.005449998
56119.9919,11.75,61.9375,22.72369,-2.3125,0.00672387
56119.9944,11.875,61.5,21.97258,-2.125,0.004489144
56119.9969,12.0,61.1875,21.07391,-2.0,0.005063788
56119.9994,11.875,60.9375,20.20873,-1.875,0.004660447
56120.0019,11.8125,60.875,19.50461,-1.25,0.004515618
56120.0044,11.9375,60.1875,18.98872,-1.5625,0.004408164
56120.0069,11.75,60.0625,18.60628,-1.3125,0.00432407
56120.0094,11.9375,59.8125,18.27831,-1.375,0.004235304
56120.0119,12.0625,59.4375,17.95187,-1.4375,0.004148095
56120.0144,12.0625,58.625,17.6104,-1.3125,0.004098262
56120.0169,11.9375,58.5,17.24667,-1.1875,0.004067116
56120.0194,11.9375,57.9375,16.83001,-1.375,0.004034412
56120.0219,11.875,57.25,16.30427,-1.8125,0.003970563
56120.0244,11.9375,56.9375,15.62737,-2.0625,0.003908271
56120.0269,12.0,56.375,14.82823,-1.875,0.00388024
56120.0294,11.875,55.6875,14.03561,-2.25,0.00388024
56120.0319,11.875,55.125,13.44467,-2.1875,0.003855323
56120.0344,11.875,54.75,13.22511,-1.875,0.00381639
56120.0369,12.0,54.4375,13.4162,-1.5625,0.003777458
56120.0394,12.125,53.8125,13.87327,-1.125,0.003754098
56120.0419,12.0625,53.625,14.30985,-1.0,0.003750984
56120.0444,12.125,53.25,14.42642,-1.75,0.003740083
56120.0469,12.0,52.875,14.06494,-1.875,0.003719838
56120.0494,12.0,52.625,13.3076,-2.0625,0.003690249
56120.0519,11.9375,52.3125,12.45971,-2.0625,0.003685577
56120.0544,12.0,52.0625,11.91766,-2.5,0.003696478
56120.0569,12.0625,51.8125,11.98325,-2.125,0.003671561
56120.0594,12.0,51.375,12.71737,-2.3125,0.003646645
56120.0619,12.0,51.25,13.90695,-1.9375,0.003641973
56120.0644,11.9375,51.0,15.16091,-1.625,0.003649759
56120.0669,12.1875,50.6875,16.08559,-1.6875,0.003646645
56120.0694,12.125,50.4375,16.45148,-1.9375,0.003631072
56120.0719,12.125,49.875,16.27176,-1.5625,0.003609269
56120.0744,12.25,49.875,15.76235,-1.375,0.003601483
56120.0769,12.3125,49.625,15.21495,-1.75,0.003612384
56120.0794,12.125,49.1875,14.85443,-1.625,0.003610827
56120.0819,12.125,49.125,14.75104,-1.375,0.003595254
56120.0844,12.1875,49.0,14.82178,-1.6875,0.003779015
56120.0869,12.1875,48.75,14.90547,-1.6875,0.002765212
56120.0894,12.1875,48.375,14.85963,-1.8125,0.005481144
56120.0919,12.0625,48.125,14.62651,-2.1875,3.526476e-05
56120.0944,12.0625,48.0625,14.24027,-1.5,-0.02200677
56120.0969,12.0,47.9375,13.78493,-1.4375,-0.02183702
56120.0994,12.1875,47.75,13.33813,-1.75,-0.02209709
56120.1019,12.3125,47.5625,12.93589,-1.375,-0.01695333
56120.1044,12.3125,47.375,12.57361,-1.625,0.005898501
56120.1069,12.25,47.375,12.23318,-1.6875,0.00709295
56120.1094,12.25,47.1875,11.911,-1.6875,0.004736755
56120.1119,12.25,46.875,11.62666,-1.875,0.005331644
56120.1144,12.125,46.6875,11.40882,-1.75,0.004959449
56120.1169,12.125,46.6875,11.27236,-1.75,0.004809948
56120.1194,12.1875,46.375,11.2063,-1.9375,0.004672906
56120.1219,12.1875,46.375,11.18184,-2.0,0.004571681
56120.1244,12.3125,46.1875,11.17414,-1.8125,0.004467342
56120.1269,12.4375,45.875,11.18078,-1.625,0.00438792
56120.1294,12.4375,45.875,11.22157,-1.375,0.004305383
56120.1319,12.3125,45.75,11.3189,-1.6875,0.004218174
56120.1344,12.3125,45.5625,11.4726,-1.9375,0.00415121
56120.1369,12.1875,45.625,11.6488,-1.6875,0.004098262
56120.1394,12.1875,45.1875,11.79344,-1.5625,0.004040642
56120.1419,12.25,45.1875,11.86338,-1.5625,0.003993923
56120.1444,12.25,45.125,11.85429,-1.5,0.003956547
56120.1469,12.1875,45.0,11.80415,-1.3125,0.003930073
56120.1494,12.125,44.75,11.76613,-1.4375,0.003917615
56120.1519,12.25,44.6875,11.7675,-1.625,0.003892698
56120.1544,12.3125,44.5625,11.78111,-1.75,0.003845979
56120.1569,12.3125,44.5,11.73159,-1.5,0.00381639
56120.1594,12.25,44.4375,11.54008,-1.8125,0.003810161
56120.1619,12.375,44.3125,11.1831,-1.625,0.003821062
56120.1644,12.25,44.25,10.72928,-2.0625,0.003796145
56120.1669,12.1875,44.25,10.32648,-1.9375,0.003754098
56120.1694,12.25,43.9375,10.1369,-1.8125,0.00374164
56120.1719,12.25,43.8125,10.25014,-1.3125,0.003743197
56120.1744,12.1875,43.75,10.62198,-1.625,0.003749426
56120.1769,12.1875,43.5625,11.07608,-1.5,0.003719838
56120.1794,12.3125,43.375,11.37468,-1.5625,0.003702707
56120.1819,12.25,43.25,11.32585,-1.875,0.003707379
56120.1844,12.3125,43.0625,10.87357,-2.0,0.003713608
56120.1869,12.3125,43.125,10.12405,-1.875,0.003708937
56120.1894,12.3125,43.0,9.293395,-1.625,0.003666889
56120.1919,12.375,42.875,8.603317,-1.8125,0.003593696
56120.1944,12.375,42.875,8.178216,-2.125,0.003550092
56120.1969,12.1875,42.8125,7.995466,-1.8125,0.003592139
56120.1994,12.5,42.625,7.912832,-1.75,0.003911386
56120.2019,12.1875,42.4375,7.756096,-1.5,0.003048641
56120.2044,12.25,42.375,7.419528,-2.1875,0.006037101
56120.2069,12.3125,42.1875,6.926491,-1.8125,0.0006130232
56120.2094,12.125,42.0625,6.418746,-1.75,-0.0217794
56120.2119,12.25,41.9375,6.080731,-1.1875,-0.02161588
56120.2144,12.1875,41.9375,6.037896,-1.375,-0.02209709
56120.2169,12.25,41.8125,6.28138,-1.4375,-0.01699382
56120.2194,12.0,41.75,6.658007,-1.5,0.005938991
56120.2219,12.3125,41.625,6.932958,-1.8125,0.006993283
56120.2244,12.5,41.6875,6.89757,-1.625,0.004609056
56120.2269,12.3125,41.5,6.473123,-1.5,0.005239763
56120.2294,12.4375,41.3125,5.762742,-1.375,0.004858224
56120.2319,12.3125,41.375,5.02505,-1.125,0.004721182
56120.2344,12.375,41.375,4.577094,-1.5,0.0046184
56120.2369,12.25,41.25,4.663848,-1.3125,0.00450316
56120.2394,12.3125,41.0,5.346441,-1.75,0.004392591
56120.2419,12.3125,40.875,6.457513,-1.5,0.004327185
56120.2444,12.4375,40.75,7.647208,-1.625,0.004278908
56120.2469,12.1875,40.625,8.506954,-1.9375,0.004233747
56120.2494,12.3125,40.5625,8.728888,-1.625,0.00418547
56120.2519,12.4375,40.5,8.240445,-1.875,0.004130965
56120.2544,12.4375,40.375,7.257767,-1.6875,0.004104491
56120.2569,12.375,40.5625,6.230053,-1.8125,0.004099819
56120.2594,12.4375,40.4375,5.689404,-1.625,0.004074902
56120.2619,12.375,40.375,6.061747,-1.8125,0.004034412
56120.2644,12.3125,40.3125,7.514889,-1.75,0.004004824
56120.2669,12.1875,40.1875,9.908779,-1.5625,0.004003266
56120.2694,12.1875,40.0,12.87207,-1.5,0.004000152
56120.2719,12.4375,39.875,15.97528,-1.125,0.003975235
56120.2744,12.25,39.6875,18.92166,-1.5625,0.00393786
56120.2769,12.1875,39.75,21.66905,-2.125,0.003920729
56120.2794,12.25,39.5,24.4241,-1.625,0.003925401
56120.2819,12.1875,39.375,27.51045,-2.0,0.003926959
56120.2844,12.4375,39.4375,31.17215,-2.0625,0.003908271
56120.2869,12.375,39.375,35.40942,-1.9375,0.00387401
56120.2894,12.4375,39.3125,39.93074,-2.1875,0.003864667
56120.2919,12.3125,39.375,44.2516,-2.125,0.003886469
56120.2944,12.25,39.0625,47.89854,-1.875,0.00388024
56120.2969,12.1875,39.0625,50.62329,-1.8125,0.003863109
56120.2994,12.0625,38.875,52.52352,-2.125,0.003844422
56120.3019,12.125,38.875,54.00899,-1.8125,0.003845979
56120.3044,12.25,38.6875,55.62458,-1.75,0.003850651
56120.3069,12.1875,38.6875,57.81014,-1.9375,0.003828849
56120.3094,12.1875,38.5625,60.70771,-2.4375,0.003803932
56120.3119,12.375,38.5625,64.10296,-2.0,0.003808604
56120.3144,12.1875,38.4375,67.52279,-2.0625,0.003976792
56120.3169,12.1875,38.5,70.44006,-2.125,0.003160767
56120.3194,12.1875,38.375,72.49085,-1.9375,0.005403279
56120.3219,12.3125,38.5,73.60713,-2.1875,0.0008466183
56120.3244,12.25,38.1875,74.01534,-2.0625,-0.01706389
56120.3269,12.25,38.0,74.11467,-2.0625,-0.01640983
56120.3294,12.1875,38.1875,74.30035,-1.5625,-0.01651728
56120.3319,12.25,38.0625,74.81558,-2.0,-0.01251969
56120.3344,12.1875,37.9375,75.69293,-2.1875,0.005375248
56120.3369,12.125,37.75,76.79447,-1.8125,0.006220862
56120.3394,12.25,37.8125,77.91454,-1.8125,0.004425295
56120.3419,12.125,37.75,78.88586,-1.875,0.004950105
56120.3444,12.25,37.4375,79.63872,-2.1875,0.004644874
56120.3469,12.125,37.625,80.19626,-2.125,0.004504717
56120.3494,12.125,37.5,80.62409,-2.1875,0.004443982
56120.3519,12.0625,37.375,80.97282,-2.0625,0.00440505
56120.3544,12.125,37.375,81.24769,-2.375,0.004353659
56120.3569,12.25,37.375,81.41776,-2.4375,0.004292924
56120.3594,12.1875,37.25,81.45172,-1.625,0.004233747
56120.3619,12.25,37.1875,81.35196,-1.625,0.004216616
56120.3644,12.125,37.0625,81.16401,-2.0,0.004222846
56120.3669,12.3125,37.0,80.95456,-2.3125,0.004197929
56120.3694,12.25,37.125,80.77299,-2.5625,0.004162111
56120.3719,12.3125,37.1875,80.62012,-2.1875,0.004129408
56120.3744,12.375,37.0625,80.44336,-1.875,0.004115392
56120.3769,12.125,37.125,80.16139,-1.875,0.004124736
56120.3794,12.3125,37.25,79.70438,-1.6875,0.004113835
56120.3819,12.25,37.625,79.04711,-1.75,0.004085803
56120.3844,12.3125,37.9375,78.21894,-1.9375,0.004073345
56120.3869,12.25,38.8125,77.28688,-2.25,0.004081131
56120.3894,12.25,39.5,76.32276,-2.4375,0.004095147
56120.3919,12.25,40.4375,75.37469,-2.3125,0.004085803
56120.3944,12.375,41.25,74.45788,-2.0,0.004071788
56120.3969,12.3125,41.8125,73.56544,-1.8125,0.004076459
56120.3994,12.4375,42.625,72.68835,-1.8125,0.00409359
56120.4019,12.3125,43.0,71.82808,-2.1875,0.004118507
56120.4044,12.3125,43.4375,70.99273,-2.0,0.004104491
56120.4069,12.25,43.75,70.18018,-2.0,0.004084246
56120.4094,12.1875,44.25,69.36308,-1.9375,0.00409359
56120.4119,12.3125,44.6875,68.49065,-2.5625,0.004118507
56120.4144,12.4375,45.1875,67.51069,-2.25,0.004112277
56120.4169,12.3125,45.625,66.4044,-1.5625,0.004076459
56120.4194,12.375,46.125,65.21243,-1.5625,0.004032855
56120.4219,12.3125,46.75,64.03101,-1.9375,0.004007938
56120.4244,12.5625,47.1875,62.97513,-1.875,0.004003266
56120.4269,12.4375,47.6875,62.12325,-2.0625,0.003967448
56120.4294,12.5,48.1875,61.47215,-1.9375,0.004057772
56120.4319,12.4375,48.875,60.93003,-1.8125,0.003293137
56120.4344,12.4375,49.4375,60.35607,-1.625,0.005242877
56120.4369,12.3125,50.1875,59.6272,-1.5,0.001288892
56120.4394,12.375,50.8125,58.69701,-1.9375,-0.01426854
56120.4419,12.4375,51.625,57.61192,-1.8125,-0.01364406
56120.4444,12.4375,52.3125,56.47335,-1.8125,-0.0137811
56120.4469,12.3125,52.8125,55.36851,-1.875,-0.0104843
56120.4494,12.25,53.625,54.31143,-1.375,0.004736755
56120.4519,12.3125,54.375,53.23317,-0.9375,0.005443769
56120.4544,12.25,55.125,52.03112,-1.25,0.003928516
56120.4569,12.4375,55.9375,50.65136,-1.6875,0.00443931
56120.4594,12.3125,56.625,49.15155,-1.5,0.004271122
56120.4619,12.4375,57.5625,47.69784,-1.875,0.004229075
56120.4644,12.3125,58.1875,46.48457,-1.6875,0.004173012
56120.4669,12.1875,58.9375,45.61282,-1.9375,0.004124736
56120.4694,12.1875,59.8125,44.99701,-1.5625,0.00409359
56120.4719,12.3125,60.5,44.36183,-1.75,0.00409359
56120.4744,12.3125,61.125,43.34745,-1.625,0.00407023
56120.4769,12.25,61.875,41.68025,-1.8125,0.004025069
56120.4794,12.375,62.4375,39.32103,-1.625,0.004014167
56120.4819,12.3125,62.6875,36.50503,-1.8125,0.00401261
56120.4844,12.25,63.3125,33.63929,-1.6875,0.004015725
56120.4869,12.0625,63.625,31.09908,-1.3125,0.003997037
56120.4894,12.375,64.0625,29.02678,-1.6875,0.003961219
56120.4919,12.3125,64.375,27.24489,-2.125,0.003953433
56120.4944,12.3125,64.8125,25.34173,-2.1875,0.003956547
56120.4969,12.4375,65.0625,22.89872,-2.1875,0.003958105
56120.4994,12.25,65.25,19.7478,-2.0625,0.003942532
56120.5019,12.375,65.5625,16.12275,-2.3125,0.003920729
56120.5044,12.4375,65.75,12.61544,-1.875,0.003911386
56120.5069,12.3125,65.6875,9.945086,-1.9375,0.003909828
56120.5094,12.375,65.75,8.646625,-2.0,0.003919172
56120.5119,12.4375,66.1875,8.829363,-1.8125,0.003902042
56120.5144,12.4375,66.1875,10.12464,-2.125,0.003878682
56120.5169,12.5625,66.125,11.84815,-1.6875,0.003883354
56120.5194,12.4375,65.875,13.29441,-2.125,0.003898927
56120.5219,12.375,65.875,14.01863,-2.1875,0.00389737
56120.5244,12.3125,65.75,13.97254,-2.0625,0.003875568
56120.5269,12.4375,65.6875,13.44185,-2.0625,0.003858437
56120.5294,12.5,65.75,12.83621,-2.0625,0.003877125
56120.5319,12.4375,65.3125,12.45334,-2.375,0.003884911
56120.5344,12.3125,65.0,12.34223,-2.0625,0.003877125
56120.5369,12.3125,64.875,12.32543,-2.375,0.003863109
56120.5394,12.5,64.375,12.1491,-2.1875,0.003850651
56120.5419,12.5,64.125,11.66133,-1.875,0.003850651
56120.5444,12.5625,63.75,10.91202,-1.75,0.004037527
56120.5469,12.5625,63.375,10.12066,-2.125,0.003149866
56120.5494,12.4375,63.0625,9.539804,-2.375,0.005574582
56120.5519,12.5,62.625,9.302217,-1.8125,0.0005725334
56120.5544,12.4375,62.125,9.345243,-2.375,-0.01773198
56120.5569,12.5,61.5625,9.456638,-1.8125,-0.01506432
56120.5594,12.625,61.1875,9.411048,-2.25,-0.01483851
56120.5619,12.5625,60.625,9.112346,-2.3125,-0.01124271
56120.5644,12.5625,60.1875,8.653293,-2.25,0.005896944
56120.5669,12.5625,59.5,8.255444,-2.4375,0.005853339
56120.5694,12.4375,59.0,8.125106,-2.1875,0.004046871
56120.5719,12.625,58.375,8.312318,-1.75,0.004637088
56120.5744,12.5625,57.9375,8.660562,-2.0625,0.004345872
56120.5769,12.6875,57.3125,8.883154,-1.6875,0.004297596
56120.5794,12.75,56.8125,8.727938,-1.6875,0.004255549
56120.5819,12.4375,56.3125,8.138614,-2.125,0.004218174
56120.5844,12.5625,55.75,7.318959,-1.5625,0.004166783
56120.5869,12.4375,55.25,6.656737,-1.6875,0.004120064
56120.5894,12.75,54.875,6.540137,-1.9375,0.004115392
56120.5919,12.6875,54.5625,7.159509,-1.6875,0.004112277
56120.5944,12.6875,54.3125,8.39756,-1.5,0.004090475
56120.5969,12.625,54.0,9.867755,-2.0,0.004056215
56120.5994,12.625,53.625,11.08252,-2.375,0.004034412
56120.6019,12.6875,53.375,11.67019,-2.25,0.004031298
56120.6044,12.625,53.0625,11.53577,-2.4375,0.004034412
56120.6069,12.75,52.75,10.89121,-2.3125,0.00401261
56120.6094,12.6875,52.3125,10.14705,-2.1875,0.003965891
56120.6119,12.75,52.125,9.723335,-2.0625,0.003959662
56120.6144,12.625,51.875,9.871274,-2.375,0.00397212
56120.6169,12.75,51.4375,10.58416,-2.3125,0.003975235
56120.6194,12.75,51.25,11.62784,-2.625,0.003962777
56120.6219,12.8125,50.8125,12.6635,-2.9375,0.00393786
56120.6244,12.6875,50.625,13.39712,-2.5,0.003928516
56120.6269,12.8125,50.4375,13.68744,-2.25,0.00395499
56120.6294,12.875,50.125,13.57335,-1.8125,0.003950318
56120.6319,12.75,49.875,13.22341,-1.9375,0.003948761
56120.6344,12.75,49.75,12.8443,-2.125,0.003934745
56120.6369,12.6875,49.375,12.59428,-1.75,0.003923844
56120.6394,12.875,49.3125,12.53664,-2.3125,0.003936302
56120.6419,12.8125,48.9375,12.64259,-2.3125,0.003920729
56120.6444,12.8125,48.875,12.8296,-2.0625,0.003909828
56120.6469,12.8125,48.6875,13.01046,-2.25,0.003895813
56120.6494,12.6875,48.5625,13.12992,-2.1875,0.003898927
56120.6519,12.75,48.3125,13.1778,-2.1875,0.003922287
56120.6544,12.75,48.125,13.17995,-2.625,0.003925401
56120.6569,12.8125,48.0,13.17672,-2.125,0.003922287
56120.6594,12.8125,47.6875,13.20027,-2.25,0.003930073
56120.6619,12.875,47.75,13.25951,-2.125,0.004099819
56120.6644,12.6875,47.25,13.337,-2.5,0.003411492
56120.6669,12.6875,47.1875,13.39771,-2.3125,0.005284925
56120.6694,12.75,47.125,13.40611,-2.3125,0.001453965
56120.6719,12.6875,47.0,13.34454,-2.3125,-0.01403806
56120.6744,12.8125,46.8125,13.22483,-2.3125,-0.01407543
56120.6769,12.6875,46.75,13.08694,-2.4375,-0.01433395
56120.6794,12.5625,46.5,12.98371,-2.3125,-0.01114771
56120.6819,12.6875,46.375,12.95736,-2.375,0.004428409
56120.6844,12.75,46.125,13.01913,-2.3125,0.005546551
56120.6869,12.6875,46.1875,13.14299,-1.9375,0.004126293
56120.6894,12.75,46.0,13.27857,-1.8125,0.004591926
56120.6919,12.75,45.875,13.37803,-2.375,0.004334971
56120.6944,12.75,45.6875,13.42306,-2.8125,0.004277351
56120.6969,12.625,45.625,13.43655,-2.5625,0.004244648
56120.6994,12.75,45.5,13.47083,-2.4375,0.00422596
56120.7019,12.625,45.3125,13.57819,-2.75,0.004196372
56120.7044,12.625,45.25,13.77877,-2.4375,0.00415121
56120.7069,12.6875,45.125,14.04334,-2.375,0.004118507
56120.7094,12.75,45.0,14.30389,-2.4375,0.004121621
56120.7119,12.75,44.9375,14.48756,-2.6875,0.004124736
56120.7144,12.6875,44.75,14.55647,-2.4375,0.004096704
56120.7169,12.8125,44.5625,14.53184,-1.9375,0.004060886
56120.7194,12.8125,44.25,14.48706,-2.375,0.0040531
56120.7219,12.75,44.4375,14.51144,-2.5,0.004059329
56120.7244,12.75,44.0625,14.66357,-2.8125,0.004049985
56120.7269,12.75,44.25,14.93919,-2.8125,0.004026626
56120.7294,12.6875,43.9375,15.27062,-2.1875,0.004017282
56120.7319,12.5,43.9375,15.55788,-2.3125,0.004011053
56120.7344,12.625,43.6875,15.71421,-2.125,0.004021954
56120.7369,12.5,43.5625,15.70172,-2.375,0.004021954
56120.7394,12.6875,43.5,15.53932,-2.3125,0.003997037
56120.7419,12.5,43.375,15.28136,-2.1875,0.003975235
56120.7444,12.5625,43.0625,14.98164,-2.3125,0.003965891
56120.7469,12.4375,43.125,14.66458,-2.375,0.003944089
56120.7494,12.4375,42.9375,14.3199,-2.1875,0.003895813
56120.7519,12.5625,42.6875,13.92225,-1.875,0.0039145
56120.7544,12.625,42.8125,13.46233,-1.5625,0.004015725
56120.7569,12.75,42.625,12.97,-1.4375,0.004171455
56120.7594,12.5625,42.4375,12.51464,-1.5625,0.004384805
56120.7619,12.4375,42.375,12.18216,-1.75,0.004478243
56120.7644,12.5,42.3125,12.0401,-1.875,0.004311612
56120.7669,12.6875,42.3125,12.10755,-2.0,0.004007938
56120.7694,12.5,42.0625,12.34397,-2.4375,0.003817948
56120.7719,12.5,42.0625,12.65991,-2.375,0.003802375
56120.7744,12.5,41.8125,12.94366,-2.25,0.003793031
56120.7769,12.5625,41.75,13.09498,-2.0625,0.003936302
56120.7794,12.6875,41.75,13.0562,-2.1875,0.003294695
56120.7819,12.4375,41.6875,12.83612,-2.1875,0.005233534
56120.7844,12.625,41.5,12.52215,-2.5625,0.001481997
56120.7869,12.5625,41.5,12.27436,-2.4375,-0.01390569
56120.7894,12.6875,41.375,12.29383,-2.375,-0.01399913
56120.7919,12.6875,41.1875,12.76143,-2.4375,-0.01417666
56120.7944,12.6875,41.0,13.7584,-2.5,-0.0108051
56120.7969,12.5,40.9375,15.19623,-2.4375,0.004501602
56120.7994,12.5625,40.875,16.79533,-2.25,0.005534093
56120.8019,12.625,40.75,18.14434,-2.1875,0.004107605
56120.8044,12.6875,40.625,18.83691,-2.8125,0.004582582
56120.8069,12.5625,40.625,18.64534,-2.25,0.00440505
56120.8094,12.5625,40.375,17.65828,-2.0,0.004348987
56120.8119,12.75,40.3125,16.30797,-2.5625,0.004288252
56120.8144,12.3125,40.1875,15.25225,-2.75,0.004268007
56120.8169,12.625,40.25,15.14216,-2.75,0.004244648
56120.8194,12.5625,40.1875,16.36811,-2.25,0.004229075
56120.8219,12.875,39.9375,18.90095,-2.6875,0.004205715
56120.8244,12.6875,40.0,22.31107,-2.4375,0.004160554
56120.8269,12.625,39.875,25.96849,-2.5,0.004158996
56120.8294,12.6875,39.8125,29.33739,-2.3125,0.00416834
56120.8319,12.5,39.6875,32.2251,-2.0,0.004158996
56120.8344,12.375,39.5,34.85825,-1.9375,0.004137194
56120.8369,12.5,39.1875,37.74216,-2.0625,0.004102934
56120.8394,12.5,39.25,41.36869,-1.875,0.004087361
56120.8419,12.5625,39.125,45.91979,-1.375,0.004096704
56120.8444,12.4375,39.0625,51.12238,-1.5625,0.004098262
56120.8469,12.3125,39.0,56.33925,-1.625,0.004078017
56120.8494,12.375,38.75,60.86009,-1.5,0.004057772
56120.8519,12.4375,38.875,64.24967,-1.1875,0.004065558
56120.8544,12.3125,38.6875,66.57416,-1.875,0.004079574
56120.8569,12.1875,38.625,68.38093,-1.625,0.00407023
56120.8594,12.25,38.5625,70.43089,-1.25,0.004037527
56120.8619,12.375,38.5,73.30977,-1.8125,0.004023511
56120.8644,12.1875,38.4375,77.11203,-1.8125,0.004040642
56120.8669,12.375,38.3125,81.3601,-1.8125,0.004057772
56120.8694,12.3125,38.1875,85.20551,-1.5,0.004045313
56120.8719,12.3125,38.125,87.82024,-1.8125,0.004011053
56120.8744,12.25,38.0,88.79037,-1.9375,0.003997037
56120.8769,12.375,38.0,88.31926,-2.125,0.004020397
56120.8794,12.3125,37.875,87.14371,-1.5625,0.00403597
56120.8819,12.125,37.75,86.20487,-1.4375,0.004026626
56120.8844,12.25,37.6875,86.23447,-1.1875,0.00399548
56120.8869,12.125,37.6875,87.45409,-1.125,0.003998594
56120.8894,12.25,37.625,89.52239,-1.6875,0.003998594
56120.8919,12.3125,37.5,91.73991,-1.8125,0.004135637
56120.8944,12.5,37.5,93.39886,-1.5625,0.003427065
56120.8969,12.5,37.375,94.10207,-1.5625,0.005302055
56120.8994,12.25,37.375,93.90493,-1.8125,0.001516257
56120.9019,12.25,37.375,93.23141,-1.75,-0.01382471
56120.9044,12.1875,37.1875,92.62831,-1.8125,-0.01374062
56120.9069,12.25,37.0625,92.49407,-2.25,-0.01385586
56120.9094,12.3125,37.0,92.915,-2.1875,-0.01054971
56120.9119,12.1875,36.8125,93.67404,-2.1875,0.004632416
56120.9144,12.1875,36.6875,94.40363,-1.6875,0.005577697
56120.9169,12.1875,36.5,94.78613,-1.75,0.00415121
56120.9194,12.25,36.625,94.69525,-2.0625,0.004629301
56120.9219,12.4375,36.5,94.21657,-2.5,0.004428409
56120.9244,12.25,36.625,93.55759,-2.5,0.00438792
56120.9269,12.3125,36.5,92.91303,-2.8125,0.004369232
56120.9294,12.3125,36.5,92.36507,-2.9375,0.004331857
56120.9319,12.3125,36.5,91.86559,-2.9375,0.004296039
56120.9344,12.3125,36.75,91.29504,-2.6875,0.004268007
56120.9369,12.25,36.8125,90.55082,-2.0625,0.004263335
56120.9394,12.375,37.25,89.60805,-2.1875,0.004269565
56120.9419,12.3125,37.75,88.52229,-2.0625,0.00424932
56120.9444,12.3125,38.625,87.3821,-2.125,0.004229075
56120.9469,12.1875,39.6875,86.24989,-2.0625,0.004222846
56120.9494,12.1875,40.625,85.13055,-2.4375,0.004241533
56120.9519,12.0625,41.125,83.98481,-2.125,0.004246205
56120.9544,12.1875,41.8125,82.77147,-1.9375,0.004230632
56120.9569,12.125,42.25,81.48557,-1.6875,0.004219731
56120.9594,12.125,42.75,80.16422,-1.4375,0.004232189
56120.9619,12.125,43.3125,78.85735,-1.4375,0.004255549
56120.9644,12.0625,43.5,77.58743,-1.6875,0.004261778
56120.9669,11.9375,44.1875,76.33017,-1.9375,0.004260221
56120.9694,12.0625,44.5625,75.03344,-2.0625,0.004243091
56120.9719,12.0625,44.9375,73.66352,-1.75,0.004232189
56120.9744,12.1875,45.375,72.2463,-2.0,0.004230632
56120.9769,12.1875,45.875,70.87139,-1.5,0.004194814
56120.9794,12.0,46.4375,69.64949,-1.875,0.004155882
56120.9819,12.0,46.9375,68.64557,-1.5625,0.004137194
56120.9844,12.0625,47.5625,67.83032,-1.6875,0.004137194
56120.9869,11.9375,48.125,67.08598,-1.9375,0.00412785
56120.9894,12.125,48.6875,66.26778,-2.125,0.004085803
56120.9919,12.0,49.375,65.28864,-1.75,0.004045313
56120.9944,12.0,50.125,64.17382,-1.9375,0.004042199
56120.9969,11.8125,50.5625,63.04541,-2.1875,0.004046871
56120.9994,12.0,51.1875,62.04042,-2.1875,0.004049985
56121.0019,11.9375,51.9375,61.20891,-2.0,0.004025069
56121.0044,11.9375,52.5,60.45708,-2.0625,0.004000152
56121.0069,12.0,53.25,59.5796,-2.25,0.004141866
56121.0094,12.0625,54.0,58.37154,-1.6875,0.003462883
56121.0119,12.0625,54.625,56.75929,-1.3125,0.005333201
56121.0144,11.875,55.5625,54.86893,-1.4375,0.001505356
56121.0169,11.9375,56.375,52.98,-1.75,-0.01361915
56121.0194,11.9375,57.125,51.37702,-1.375,-0.0131504
56121.0219,12.125,57.875,50.17598,-1.5625,-0.01312081
56121.0244,12.0,58.75,49.22785,-1.6875,-0.009887854
56121.0269,11.9375,59.25,48.16592,-1.5625,0.004727411
56121.0294,11.8125,60.0625,46.5848,-1.5625,0.005392378
56121.0319,11.75,60.8125,44.26089,-1.5625,0.004006381
56121.0344,11.9375,61.375,41.2893,-1.3125,0.004526519
56121.0369,12.0,62.0,38.05095,-1.5,0.004320956
56121.0394,11.9375,62.5,35.01414,-1.8125,0.004246205
56121.0419,11.8125,62.875,32.47149,-1.125,0.00422596
56121.0444,11.8125,63.3125,30.35977,-1.75,0.004218174
56121.0469,11.9375,63.75,28.27554,-2.125,0.004207273
56121.0494,11.8125,64.0625,25.69707,-2.1875,0.004190142
56121.0519,11.875,64.6875,22.30746,-1.625,0.004155882
56121.0544,11.9375,64.8125,18.24738,-1.5,0.00413408
56121.0569,11.6875,65.0,14.15067,-1.375,0.004137194
56121.0594,11.9375,65.0625,10.92227,-1.4375,0.004130965
56121.0619,11.9375,65.125,9.35224,-1.375,0.004101376
56121.0644,11.8125,65.375,9.749876,-1.9375,0.004073345
56121.0669,11.75,65.5,11.77939,-1.4375,0.004065558
56121.0694,11.6875,65.6875,14.58213,-0.875,0.004076459
56121.0719,11.875,65.6875,17.12831,-0.625,0.004064001
56121.0744,11.9375,65.5625,18.6304,-0.6875,0.004040642
56121.0769,11.8125,65.25,18.82346,-0.75,0.004023511
56121.0794,11.625,65.125,17.99173,-0.875,0.004025069
56121.0819,11.5625,65.125,16.75055,-1.125,0.004039084
56121.0844,11.75,64.9375,15.71108,-0.8125,0.00402974
56121.0869,11.5625,64.875,15.201,-1.0625,0.00399548
56121.0894,11.6875,64.6875,15.16916,-1.0,0.003990808
56121.0919,11.6875,64.5625,15.29571,-1.25,0.00399548
56121.0944,11.5,64.3125,15.22162,-1.5,0.004009496
56121.0969,11.625,63.875,14.76102,-1.3125,0.003986136
56121.0994,11.4375,63.3125,13.98618,-1.5,0.003959662
56121.1019,11.4375,62.9375,13.15799,-1.3125,0.003967448
56121.1044,11.4375,62.4375,12.56196,-1.3125,0.003984579
56121.1069,11.3125,61.9375,12.35365,-1.0,0.003979907
56121.1094,11.5625,61.6875,12.49768,-1.375,0.003958105
56121.1119,11.6875,61.25,12.81955,-1.875,0.003936302
56121.1144,11.5625,60.5625,13.12208,-1.8125,0.003940974
56121.1169,11.625,60.0,13.28775,-1.4375,0.003970563
56121.1194,11.625,59.375,13.3099,-1.375,0.003975235
56121.1219,11.5625,59.0,13.24802,-1.375,0.004018839
56121.1244,11.625,58.4375,13.15218,-1.1875,0.003654431
56121.1269,11.5,57.5625,13.01762,-1.0625,0.004599712
56121.1294,11.5,57.0,12.80207,-1.25,0.002735624
56121.1319,11.375,56.5,12.49018,-1.0625,-0.004712944
56121.1344,11.5,56.0,12.15221,-1.25,-0.004488693
56121.1369,11.5,55.5625,11.94436,-1.4375,-0.004639751
56121.1394,11.6875,55.0,12.03644,-0.8125,-0.003224165
56121.1419,11.625,54.5,12.50416,-1.4375,0.003749426
56121.1444,11.625,54.0625,13.25408,-1.0,0.004051543
56121.1469,11.4375,53.75,14.03813,-1.25,0.00352206
56121.1494,11.4375,53.1875,14.56384,-1.3125,0.003877125
56121.1519,11.5,53.0625,14.6495,-1.1875,0.003853765
56121.1544,11.5,52.875,14.33812,-1.0,0.003902042
56121.1569,11.5625,52.5,13.90104,-1.125,0.003920729
56121.1594,11.625,52.125,13.71895,-1.3125,0.003923844
56121.1619,11.75,52.0,14.0962,-1.1875,0.00395499
56121.1644,11.5625,51.5,15.10375,-1.4375,0.003987693
56121.1669,11.625,51.125,16.53448,-1.3125,0.004004824
56121.1694,11.4375,50.875,17.99633,-1.3125,0.004004824
56121.1719,11.5,50.5625,19.0963,-1.1875,0.003993923
56121.1744,11.375,50.1875,19.62116,-1.1875,0.003992365
56121.1769,11.5,49.8125,19.62342,-1.4375,0.004015725
56121.1794,11.6875,49.4375,19.37338,-1.0625,0.004025069
56121.1819,11.375,49.1875,19.20788,-1.0625,0.004015725
56121.1844,11.5,48.875,19.35892,-0.875,0.004001709
56121.1869,11.375,48.6875,19.85072,-0.5625,0.004006381
56121.1894,11.5625,48.5625,20.51155,-1.0,0.004011053
56121.1919,11.6875,48.3125,21.08513,-1.1875,0.004004824
56121.1944,11.625,48.1875,21.37476,-1.25,0.00397835
56121.1969,11.75,47.9375,21.34181,-1.0625,0.003965891
56121.1994,11.4375,47.75,21.11069,-1.125,0.003984579
56121.2019,11.8125,47.5,20.88586,-1.3125,0.004001709
56121.2044,11.5625,47.4375,20.83315,-1.3125,0.003987693
56121.2069,11.625,47.1875,20.99195,-1.5,0.003967448
56121.2094,11.5625,47.0,21.26307,-1.3125,0.003993923
56121.2119,11.5625,46.9375,21.4725,-1.0625,0.004039084
56121.2144,11.4375,46.6875,21.4708,-1.1875,0.004060886
56121.2169,11.4375,46.4375,21.21208,-1.25,0.004043756
56121.2194,11.5625,46.25,20.77203,-1.6875,0.004023511
56121.2219,11.625,46.0625,20.30062,-1.5625,0.004034412
56121.2244,11.6875,46.0625,19.94049,-1.0,0.004059329
56121.2269,11.6875,45.8125,19.75731,-1.0,0.00407023
56121.2294,11.8125,45.6875,19.71788,-1.0625,0.004064001
56121.2319,11.625,45.5,19.72321,-1.5,0.004032855
56121.2344,11.5625,45.4375,19.67341,-1.125,0.004015725
56121.2369,11.375,45.1875,19.52664,-1.1875,0.004071788
56121.2394,11.625,45.0,19.32031,-1.4375,0.00370115
56121.2419,11.6875,45.0,19.1459,-1.5,0.004607499
56121.2444,11.5625,44.75,19.09399,-1.5625,0.002643743
56121.2469,11.6875,44.625,19.20126,-1.4375,-0.004289359
56121.2494,11.625,44.75,19.42783,-1.875,-0.003069992
56121.2519,11.6875,44.5,19.67599,-1.75,-0.003085565
56121.2544,11.5625,44.25,19.83851,-1.875,-0.002194789
56121.2569,11.75,44.1875,19.85131,-1.6875,0.003587467
56121.2594,11.5625,44.0,19.72215,-1.5,0.00385688
56121.2619,11.5625,44.0,19.52066,-1.125,0.003503373
56121.2644,11.4375,43.8125,19.33849,-1.0,0.003822619
56121.2669,11.5,43.625,19.24017,-1.75,0.00379926
56121.2694,11.5,43.625,19.23219,-1.375,0.003853765
56121.2719,11.5625,43.375,19.26576,-1.5625,0.003891141
56121.2744,11.6875,43.4375,19.26981,-1.6875,0.003911386
56121.2769,11.6875,43.25,19.19563,-1.875,0.003923844
56121.2794,11.625,43.125,19.04826,-1.625,0.003912943
56121.2819,11.5625,42.9375,18.88626,-1.5,0.003926959
56121.2844,11.625,42.8125,18.78946,-1.3125,0.003967448
56121.2869,11.375,42.625,18.81186,-1.125,0.003975235
56121.2894,11.5,42.5625,18.94583,-1.375,0.003951875
56121.2919,11.625,42.4375,19.11808,-1.4375,0.003947203
56121.2944,11.625,42.25,19.22197,-1.3125,0.003961219
56121.2969,11.5625,42.25,19.16949,-1.5625,0.003951875
56121.2994,11.5,41.875,18.93498,-1.625,0.003886469
56121.3019,11.5,41.9375,18.56549,-1.25,0.003844422
56121.3044,11.4375,41.875,18.15194,-2.0,0.003917615
56121.3069,11.6875,41.8125,17.7773,-2.0,0.004079574
56121.3094,11.5625,41.625,17.47235,-2.0,0.004325628
56121.3119,11.6875,41.5,17.20646,-1.5625,0.004538978
56121.3144,11.625,41.375,16.91998,-1.375,0.004512504
56121.3169,11.8125,41.375,16.57805,-1.375,0.00418547
56121.3194,11.5625,41.25,16.21063,-1.1875,0.003828849
56121.3219,11.5,41.125,15.90816,-1.0625,0.003802375
56121.3244,11.5,41.0625,15.76787,-0.875,0.003786802
56121.3269,11.4375,40.875,15.81905,-0.8125,0.003788359
56121.3294,11.5625,40.8125,15.97442,-1.3125,0.003845979
56121.3319,11.5,40.5625,16.04778,-1.375,0.003917615
56121.3344,11.6875,40.5625,15.84322,-1.625,0.003959662
56121.3369,11.625,40.4375,15.2769,-1.5,0.003961219
56121.3394,11.5625,40.375,14.46414,-1.375,0.00395499
56121.3419,11.625,40.0625,13.712,-1.0625,0.003961219
56121.3444,11.4375,40.0625,13.39934,-1.5625,0.003981464
56121.3469,11.5625,40.0625,13.78934,-1.25,0.003970563
56121.3494,11.5,39.875,14.86461,-1.375,0.003948761
56121.3519,11.6875,39.9375,16.27726,-1.5,0.003944089
56121.3544,11.5625,39.625,17.4597,-1.6875,0.004037527
56121.3569,11.625,39.75,17.86386,-1.5,0.003531404
56121.3594,11.5,39.5625,17.226,-1.8125,0.00488937
56121.3619,11.625,39.5625,15.72883,-1.5625,0.001925828
56121.3644,11.5,39.375,13.97227,-1.25,-0.008970604
56121.3669,11.5,39.1875,12.75107,-1.4375,-0.01180178
56121.3694,11.5625,39.1875,12.73224,-1.5625,-0.007416418
56121.3719,11.5,39.125,14.17867,-1.1875,0.00522419
56121.3744,11.5625,39.0,16.85074,-1.4375,0.004917402
56121.3769,11.625,38.75,20.13597,-1.5625,0.003654431
56121.3794,11.6875,38.8125,23.34632,-1.5,0.00430694
56121.3819,11.4375,38.875,26.04278,-1.4375,0.004148095
56121.3844,11.75,38.6875,28.23362,-2.0,0.004137194
56121.3869,11.6875,38.5625,30.35042,-1.5625,0.004101376
56121.3894,11.625,38.625,33.01456,-1.875,0.004085803
56121.3919,11.4375,38.375,36.70776,-1.6875,0.004092032
56121.3944,11.5,38.1875,41.5051,-1.4375,0.004084246
56121.3969,11.5625,38.125,46.99907,-1.4375,0.004065558
56121.3994,11.375,38.0625,52.45012,-1.5625,0.004059329
56121.4019,11.625,37.75,57.09288,-1.375,0.004064001
56121.4044,11.5,37.75,60.45565,-1.4375,0.004073345
56121.4069,11.5,37.875,62.54848,-1.0625,0.004057772
56121.4094,11.5,37.75,63.83981,-1.25,0.004042199
56121.4119,11.4375,37.6875,65.0399,-0.9375,0.00403597
56121.4144,11.1875,37.5625,66.7942,-0.8125,0.004037527
56121.4169,11.3125,37.5625,69.42258,-0.625,0.004046871
56121.4194,11.375,37.3125,72.8092,-0.9375,0.004031298
56121.4219,11.375,37.375,76.47897,-1.1875,0.003998594
56121.4244,11.375,37.1875,79.81168,-1.6875,0.004004824
56121.4269,11.3125,37.0625,82.29214,-1.0625,0.004020397
56121.4294,11.375,37.1875,83.6938,-1.0625,0.004032855
56121.4319,11.3125,36.9375,84.12946,-1.4375,0.004025069
56121.4344,11.4375,36.9375,83.96804,-1.6875,0.004003266
56121.4369,11.25,37.0,83.67036,-1.8125,0.004009496
56121.4394,11.375,36.8125,83.61933,-1.6875,0.004023511
56121.4419,11.1875,36.625,84.00885,-1.1875,0.004023511
56121.4444,11.0625,36.5625,84.82141,-1.3125,0.004007938
56121.4469,11.125,36.5,85.88306,-1.125,0.00399548
56121.4494,11.1875,36.3125,86.95896,-1.375,0.004007938
56121.4519,11.1875,36.3125,87.84651,-1.5,0.004018839
56121.4544,11.125,36.1875,88.43447,-1.375,0.004011053
56121.4569,11.4375,36.1875,88.71745,-1.1875,0.003983021
56121.4594,11.25,36.125,88.77274,-1.1875,0.003981464
56121.4619,11.3125,36.125,88.71656,-0.875,0.003990808
56121.4644,11.25,35.9375,88.65804,-0.875,0.004011053
56121.4669,11.25,35.75,88.66457,-0.9375,0.00401261
56121.4694,11.125,35.625,88.74586,-1.0625,0.004118507
56121.4719,11.1875,35.625,88.85811,-1.0,0.003456654
56121.4744,11.25,35.5625,88.92522,-1.125,0.005238206
56121.4769,11.1875,35.5,88.8698,-0.875,0.001696904
56121.4794,11.1875,35.5,88.64303,-0.875,-0.01289344
56121.4819,11.0625,35.4375,88.24226,-1.375,-0.01310212
56121.4844,11.0,35.4375,87.70824,-1.375,-0.01340424
56121.4869,11.0625,35.4375,87.1025,-1.3125,-0.01026316
56121.4894,11.3125,35.5,86.47475,-1.5625,0.004450212
56121.4919,11.1875,35.5625,85.83607,-1.3125,0.005513848
56121.4944,11.1875,35.9375,85.1531,-1.625,0.004174569
56121.4969,11.25,36.375,84.36793,-1.5,0.004669791
56121.4994,11.1875,36.9375,83.43434,-1.625,0.004515618
56121.5019,11.375,37.875,82.35157,-1.6875,0.004490701
56121.5044,11.125,38.8125,81.17508,-1.5625,0.004468899
56121.5069,11.1875,39.5,79.99368,-1.5,0.00444554
56121.5094,11.25,40.0625,78.88439,-1.25,0.00444554
56121.5119,10.9375,40.625,77.8698,-1.625,0.004470456
56121.5144,11.125,41.125,76.90228,-1.8125,0.0044798
56121.5169,11.1875,41.6875,75.8877,-1.3125,0.004454883
56121.5194,11.125,42.0,74.73904,-1.4375,0.004443982
56121.5219,11.125,42.375,73.43089,-1.3125,0.00443931
56121.5244,11.125,42.875,72.02303,-1.4375,0.004425295
56121.5269,11.0,43.25,70.63671,-1.4375,0.004383248
56121.5294,11.1875,43.5625,69.39342,-1.4375,0.004317841
56121.5319,11.125,44.0625,68.34991,-1.5625,0.004278908
56121.5344,11.1875,44.625,67.46851,-1.6875,0.004263335
56121.5369,11.0,44.9375,66.64169,-2.125,0.004247762
56121.5394,11.125,45.25,65.75903,-2.1875,0.004188585
56121.5419,11.1875,45.8125,64.7792,-1.625,0.004141866
56121.5444,11.1875,46.5,63.75985,-1.75,0.00412785
56121.5469,11.0625,47.0625,62.82164,-1.6875,0.00412785
56121.5494,10.9375,47.625,62.0621,-1.5,0.004126293
56121.5519,10.875,48.0625,61.46946,-1.625,0.004099819
56121.5544,11.1875,48.8125,60.89404,-2.0625,0.004065558
56121.5569,11.125,49.375,60.10627,-1.875,0.004060886
56121.5594,10.9375,50.0,58.92018,-1.8125,0.004076459
56121.5619,11.0625,50.625,57.31588,-1.1875,0.004062444
56121.5644,11.1875,51.125,55.48523,-1.4375,0.004046871
56121.5669,11.0,52.0,53.75932,-1.625,0.004037527
56121.5694,11.25,52.625,52.4416,-1.6875,0.004042199
56121.5719,11.1875,53.1875,51.63023,-1.625,0.004060886
56121.5744,11.0625,54.0,51.13067,-1.4375,0.00403597
56121.5769,11.0,54.625,50.52137,-1.5625,0.004009496
56121.5794,10.9375,55.3125,49.35464,-1.4375,0.004018839
56121.5819,10.9375,55.8125,47.39482,-1.4375,0.004026626
56121.5844,11.0625,56.5,44.76481,-1.875,0.004171455
56121.5869,10.9375,57.1875,41.90933,-2.1875,0.00347067
56121.5894,11.0625,57.625,39.37662,-1.8125,0.005308284
56121.5919,11.125,58.1875,37.522,-1.6875,0.001597237
56121.5944,11.25,58.75,36.28979,-1.6875,-0.01347899
56121.5969,11.125,59.25,35.20187,-1.25,-0.01351636
56121.5994,11.0625,59.8125,33.5798,-1.9375,-0.01375775
56121.6019,11.1875,60.0,30.90346,-1.9375,-0.0104843
56121.6044,11.0625,60.375,27.12873,-1.5625,0.00460127
56121.6069,10.9375,60.625,22.79445,-2.1875,0.005562124
56121.6094,11.0,61.125,18.84747,-2.0,0.004157439
56121.6119,10.875,61.25,16.25435,-1.375,0.004629301
56121.6144,10.9375,61.25,15.57936,-1.5625,0.00442218
56121.6169,10.9375,61.4375,16.73079,-1.3125,0.004375461
56121.6194,11.0625,61.75,18.99864,-1.3125,0.004356774
56121.6219,10.875,61.875,21.36521,-1.1875,0.004320956
56121.6244,11.0,61.9375,22.93858,-1.0625,0.004264893
56121.6269,10.875,62.0625,23.30386,-1.4375,0.004243091
56121.6294,11.0625,62.0,22.63381,-1.5625,0.004253992
56121.6319,11.0,62.125,21.52468,-1.375,0.004261778
56121.6344,10.9375,61.9375,20.65713,-2.0625,0.004238419
56121.6369,10.8125,61.875,20.45979,-1.5625,0.004199486
56121.6394,10.875,61.8125,20.93688,-1.6875,0.004182356
56121.6419,10.9375,61.625,21.72639,-1.6875,0.004179241
56121.6444,11.0625,61.375,22.33497,-1.6875,0.004188585
56121.6469,11.125,61.25,22.41123,-1.6875,0.004169897
56121.6494,10.9375,61.0,21.91504,-1.8125,0.004137194
56121.6519,10.9375,60.625,21.10653,-2.125,0.004140309
56121.6544,10.9375,60.375,20.38,-2.125,0.004144981
56121.6569,10.875,60.0,20.04437,-1.75,0.004137194
56121.6594,11.0625,59.625,20.16954,-2.25,0.004129408
56121.6619,11.0,59.25,20.57115,-2.0,0.004113835
56121.6644,10.9375,58.625,20.92685,-2.1875,0.004104491
56121.6669,10.9375,58.25,20.95023,-2.125,0.004121621
56121.6694,10.8125,57.625,20.52853,-1.8125,0.004118507
56121.6719,10.8125,57.125,19.76045,-1.5625,0.004095147
56121.6744,10.9375,56.625,18.88889,-2.1875,0.004087361
56121.6769,11.0,56.125,18.17717,-1.875,0.004096704
56121.6794,10.9375,55.6875,17.79751,-1.625,0.004104491
56121.6819,11.0,55.125,17.78089,-2.0625,0.004098262
56121.6844,10.9375,54.5,18.03742,-1.5625,0.004081131
56121.6869,10.75,54.0,18.41912,-1.625,0.00407023
56121.6894,11.0625,53.625,18.78399,-1.625,0.004074902
56121.6919,11.1875,53.0625,19.03221,-2.0625,0.004088918
56121.6944,11.1875,52.6875,19.11161,-2.0,0.004081131
56121.6969,11.125,52.375,19.00925,-1.8125,0.004046871
56121.6994,10.875,52.0,18.74777,-2.0,0.004190142
56121.7019,11.125,51.75,18.39282,-1.8125,0.003511159
56121.7044,10.8125,51.5,18.05944,-1.6875,0.005383035
56121.7069,11.0625,51.1875,17.89893,-1.8125,0.001584779
56121.7094,11.125,50.9375,18.05679,-2.3125,-0.01359734
56121.7119,11.0625,50.625,18.61333,-1.9375,-0.01336686
56121.7144,10.9375,50.375,19.53485,-2.125,-0.01343538
56121.7169,11.0625,50.0625,20.66576,-2.0625,-0.01011522
56121.7194,11.0,49.4375,21.77384,-2.0625,0.004780359
56121.7219,11.0,49.125,22.63409,-1.9375,0.005546551
56121.7244,11.0625,48.875,23.11461,-1.8125,0.004112277
56121.7269,11.0625,48.625,23.22407,-1.9375,0.004619957
56121.7294,11.0625,48.25,23.09813,-2.4375,0.00443931
56121.7319,11.0625,48.0,22.93184,-2.3125,0.004380133
56121.7344,11.0625,47.75,22.89109,-2.0625,0.004336529
56121.7369,11.0625,47.5,23.04546,-2.25,0.004300711
56121.7394,11.0625,47.1875,23.35148,-2.375,0.004302268
56121.7419,11.1875,47.125,23.68925,-1.9375,0.004288252
56121.7444,11.125,47.0,23.92995,-2.0,0.004250877
56121.7469,11.1875,46.75,23.99845,-2.3125,0.004239976
56121.7494,11.0,46.5,23.90102,-2.0,0.004243091
56121.7519,11.1875,46.375,23.709,-1.8125,0.004244648
56121.7544,11.0625,46.25,23.51187,-1.8125,0.004229075
56121.7569,11.25,45.875,23.36726,-1.75,0.004182356
56121.7594,11.1875,45.75,23.27413,-2.1875,0.004196372
56121.7619,11.1875,45.4375,23.18043,-1.8125,0.004232189
56121.7644,11.1875,45.3125,23.01814,-2.0,0.004235304
56121.7669,11.1875,45.1875,22.74491,-1.75,0.004229075
56121.7694,11.3125,45.0625,22.36976,-2.0,0.004193257
56121.7719,11.375,44.9375,21.95016,-2.0625,0.004187028
56121.7744,11.1875,44.8125,21.56388,-1.6875,0.004216616
56121.7769,11.0625,44.6875,21.27163,-1.125,0.004229075
56121.7794,11.25,44.5625,21.09063,-1.3125,0.004229075
56121.7819,11.25,44.25,20.99259,-1.625,0.004210387
56121.7844,11.1875,44.25,20.92622,-1.8125,0.004188585
56121.7869,11.125,44.125,20.85137,-1.9375,0.004187028
56121.7894,11.125,43.9375,20.76561,-1.75,0.004162111
56121.7919,11.1875,43.8125,20.70788,-1.5625,0.004120064
56121.7944,11.125,43.8125,20.736,-1.9375,0.004098262
56121.7969,11.125,43.625,20.88958,-2.1875,0.00409359
56121.7994,11.25,43.5625,21.15815,-1.5,0.004106048
56121.8019,11.0625,43.375,21.47384,-1.6875,0.004099819
56121.8044,11.1875,43.1875,21.73534,-1.5625,0.004060886
56121.8069,11.25,42.9375,21.85479,-1.875,0.004057772
56121.8094,11.1875,43.0,21.80207,-2.0625,0.004074902
56121.8119,11.1875,42.6875,21.62271,-2.0625,0.004079574
56121.8144,11.25,42.6875,21.4179,-1.4375,0.004202601
56121.8169,11.1875,42.5,21.29272,-2.3125,0.0034878
56121.8194,11.125,42.4375,21.2998,-2.625,0.005407951
56121.8219,11.1875,42.375,21.40898,-2.25,0.001527159
56121.8244,11.125,42.3125,21.52104,-1.625,-0.01368611
56121.8269,11.0,42.0,21.52192,-1.75,-0.01297598
56121.8294,11.1875,41.8125,21.35047,-1.875,-0.01307253
56121.8319,11.1875,41.875,21.04113,-2.1875,-0.009805317
56121.8344,11.1875,41.8125,20.71523,-1.875,0.005031085
56121.8369,11.25,41.625,20.52044,-1.875,0.005529421
56121.8394,11.25,41.375,20.54792,-1.6875,0.004071788
56121.8419,11.25,41.25,20.77242,-1.5625,0.004567009
56121.8444,11.1875,41.25,21.05178,-1.5625,0.004373904
56121.8469,11.25,41.125,21.19095,-1.5625,0.004344315
56121.8494,11.25,41.125,21.03993,-1.4375,0.004278908
56121.8519,11.25,41.0625,20.57375,-1.1875,0.004171455
56121.8544,11.125,40.8125,19.90892,-1.625,0.00413408
56121.8569,11.25,40.6875,19.24451,-1.25,0.004227518
56121.8594,11.25,40.6875,18.75838,-1.125,0.004397263
56121.8619,11.1875,40.4375,18.51474,-1.3125,0.004644874
56121.8644,11.1875,40.4375,18.43509,-1.1875,0.004861339
56121.8669,11.25,40.25,18.35047,-1.0625,0.00479126
56121.8694,11.1875,40.1875,18.10542,-1.375,0.00438169
56121.8719,11.125,39.875,17.6533,-1.6875,0.003987693
56121.8744,11.25,39.875,17.0859,-1.875,0.003959662
56121.8769,11.125,39.875,16.57666,-1.5,0.003951875
56121.8794,11.1875,39.875,16.26918,-1.4375,0.003959662
56121.8819,11.1875,39.6875,16.17752,-1.4375,0.004018839
56121.8844,11.25,39.625,16.16257,-1.5625,0.004076459
56121.8869,11.125,39.5,16.00737,-1.6875,0.004090475
56121.8894,11.25,39.375,15.5541,-1.625,0.004087361
56121.8919,11.25,39.25,14.82407,-1.625,0.004106048
56121.8944,11.3125,39.25,14.04483,-1.375,0.004135637
56121.8969,11.1875,39.125,13.55314,-1.9375,0.004132522
56121.8994,11.0625,39.1875,13.61476,-2.375,0.004116949
56121.9019,11.0625,39.0,14.25622,-2.5625,0.004102934
56121.9044,11.25,39.0625,15.20801,-1.9375,0.004104491
56121.9069,11.3125,39.0,16.00545,-1.5625,0.004116949
56121.9094,11.25,38.75,16.21124,-1.4375,0.00409359
56121.9119,11.1875,38.8125,15.65303,-1.4375,0.004088918
56121.9144,11.0625,38.5625,14.55121,-1.25,0.004102934
56121.9169,11.1875,38.5,13.46126,-1.375,0.004112277
56121.9194,11.125,38.375,13.04666,-1.0,0.004121621
56121.9219,11.1875,38.25,13.78698,-1.125,0.004101376
56121.9244,11.375,38.25,15.76558,-0.875,0.004068673
56121.9269,11.3125,38.1875,18.64438,-1.125,0.004081131
56121.9294,11.375,38.0,21.84001,-1.6875,0.004235304
56121.9319,11.1875,38.0,24.81596,-1.8125,0.003506487
56121.9344,11.25,37.8125,27.34403,-2.0625,0.005490488
56121.9369,11.5,37.9375,29.60359,-2.0625,0.001413476
56121.9394,11.5,37.8125,32.06865,-1.6875,-0.01375619
56121.9419,11.3125,37.75,35.24083,-1.3125,-0.01202914
56121.9444,11.25,37.5,39.36378,-1.5,-0.01191234
56121.9469,11.3125,37.5,44.26327,-1.5625,-0.008741681
56121.9494,11.25,37.1875,49.39248,-1.4375,0.005462457
56121.9519,11.25,37.25,54.05904,-1.5625,0.005361232
56121.9544,11.125,37.0625,57.72165,-1.8125,0.003944089
56121.9569,11.125,37.0625,60.21377,-1.4375,0.004500045
56121.9594,11.0,37.0,61.79279,-1.6875,0.004272679
56121.9619,11.0625,36.9375,63.00135,-1.5625,0.004269565
56121.9644,11.125,36.8125,64.41661,-1.5625,0.004269565
56121.9669,10.9375,36.8125,66.40883,-1.625,0.004288252
56121.9694,11.0,36.75,69.01573,-1.9375,0.004275794
56121.9719,11.125,36.625,71.97222,-1.875,0.004246205
56121.9744,11.0625,36.5,74.86237,-2.125,0.004235304
56121.9769,11.1875,36.5,77.30859,-2.3125,0.004241533
56121.9794,11.375,36.5,79.10817,-2.0625,0.004243091
56121.9819,11.1875,36.3125,80.27002,-2.5,0.004229075
56121.9844,11.1875,36.3125,80.95676,-2.5,0.004193257
56121.9869,11.0,36.25,81.38204,-1.9375,0.004190142
56121.9894,11.125,36.0,81.72287,-2.0,0.0041917
56121.9919,11.1875,35.875,82.08309,-1.9375,0.004182356
56121.9944,11.125,35.75,82.50735,-2.0,0.00416834
56121.9969,11.0625,35.6875,83.01601,-1.8125,0.004157439
56121.9994,10.9375,35.6875,83.62685,-1.625,0.004141866
56122.0019,11.0,35.5,84.34756,-1.75,0.00413408
56122.0044,11.0,35.4375,85.14909,-1.6875,0.004126293
56122.0069,11.125,35.4375,85.94634,-1.625,0.004087361
56122.0094,11.0,35.25,86.61033,-1.625,0.004074902
56122.0119,10.9375,35.25,87.01451,-2.125,0.004092032
56122.0144,10.875,35.3125,87.09445,-1.875,0.004107605
56122.0169,11.0625,35.375,86.88749,-1.5,0.004101376
56122.0194,10.9375,35.4375,86.52657,-1.5,0.004082689
56122.0219,10.9375,35.4375,86.18653,-1.5,0.004085803
56122.0244,11.125,35.375,86.00714,-1.4375,0.004090475
56122.0269,11.0625,35.3125,86.03093,-1.75,0.004104491
56122.0294,11.125,35.25,86.18736,-1.9375,0.004112277
56122.0319,11.0625,35.3125,86.33018,-2.3125,0.004106048
56122.0344,11.0625,35.3125,86.30833,-1.6875,0.004116949
56122.0369,11.0625,35.3125,86.03304,-1.5625,0.004137194
56122.0394,11.0,35.3125,85.50869,-1.625,0.004146538
56122.0419,10.9375,35.3125,84.81516,-1.625,0.004140309
56122.0444,11.0,35.3125,84.05608,-1.0625,0.004121621
56122.0469,11.0,35.375,83.30459,-1.3125,0.00426645
56122.0494,10.9375,35.6875,82.57592,-1.3125,0.003749426
56122.0519,11.0,36.4375,81.83871,-1.125,0.00520706
56122.0544,10.875,37.1875,81.05302,-1.3125,0.00289914
56122.0569,11.125,38.125,80.20663,-1.4375,-0.007452236
56122.0594,10.9375,38.75,79.32605,-2.0625,-0.009657373
56122.0619,11.0,39.25,78.45637,-1.4375,-0.00575945
56122.0644,10.9375,39.75,77.62352,-1.8125,0.00481462
56122.0669,10.8125,40.4375,76.80602,-1.875,0.00485511
56122.0694,10.9375,40.75,75.93816,-1.75,0.003908271
56122.0719,10.9375,41.25,74.94643,-1.5625,0.004447097
56122.0744,11.0,41.875,73.79897,-1.8125,0.004303825
56122.0769,10.875,42.4375,72.53692,-1.5625,0.004297596
56122.0794,11.0,42.875,71.26464,-1.5625,0.00428981
56122.0819,11.0,43.5625,70.1007,-1.5,0.004288252
56122.0844,11.0625,43.8125,69.11307,-1.875,0.004282023
56122.0869,11.125,44.25,68.28124,-1.4375,0.004263335
56122.0894,11.0625,44.8125,67.50922,-1.5625,0.004236861
56122.0919,11.0625,45.0625,66.68677,-1.9375,0.00416834
56122.0944,11.1875,45.625,65.76402,-1.875,0.004120064
56122.0969,11.125,46.125,64.79226,-1.9375,0.004129408
56122.0994,11.0,46.5,63.90034,-2.0625,0.004124736
56122.1019,11.0,47.0,63.21316,-2.0,0.004098262
56122.1044,11.0625,47.5625,62.75664,-1.9375,0.004073345
56122.1069,11.25,48.1875,62.409,-1.9375,0.004074902
56122.1094,11.0625,48.6875,61.93672,-2.0,0.004078017
56122.1119,11.25,49.3125,61.10689,-1.375,0.004071788
56122.1144,11.125,49.9375,59.81943,-1.5625,0.004045313
56122.1169,11.25,50.5,58.18232,-1.9375,0.00403597
56122.1194,11.1875,51.125,56.47701,-1.5625,0.004049985
56122.1219,11.125,51.75,55.01921,-1.3125,0.004059329
56122.1244,11.0625,52.5625,53.98194,-1.4375,0.004042199
56122.1269,11.125,53.1875,53.27899,-1.5,0.004017282
56122.1294,11.25,53.875,52.58167,-1.5625,0.004015725
56122.1319,10.9375,54.625,51.47382,-1.75,0.00403597
56122.1344,11.0625,55.375,49.67186,-2.0625,0.004046871
56122.1369,11.0625,56.125,47.19261,-1.625,0.004043756
56122.1394,11.1875,56.6875,44.37023,-1.5625,0.00401261
56122.1419,11.125,57.3125,41.69946,-1.5625,0.004001709
56122.1444,11.125,57.75,39.57703,-2.0625,0.004031298
56122.1469,11.0625,58.1875,38.07626,-2.3125,0.004040642
56122.1494,11.0625,58.75,36.88202,-2.125,0.004028183
56122.1519,11.0,59.25,35.43581,-1.375,0.004006381
56122.1544,10.9375,59.5,33.22956,-1.0625,0.004001709
56122.1569,11.1875,59.875,30.10266,-1.4375,0.004026626
56122.1594,10.875,60.25,26.38569,-1.375,0.004020397
56122.1619,11.0625,60.4375,22.8052,-1.5,0.004062444
56122.1644,10.9375,60.5625,20.1843,-1.625,0.003830406
56122.1669,11.0,60.875,19.07925,-1.8125,0.004426852
56122.1694,11.0,61.125,19.52882,-1.4375,0.003257319
56122.1719,11.3125,61.25,21.03895,-0.9375,-0.001735386
56122.1744,11.25,61.1875,22.80904,-1.3125,-0.002063976
56122.1769,11.125,61.5,24.08657,-1.5625,-0.002443958
56122.1794,11.125,61.3125,24.47631,-1.8125,-0.001618588
56122.1819,11.0625,61.625,24.05912,-2.125,0.003313382
56122.1844,11.25,61.4375,23.27588,-2.5625,0.003903599
56122.1869,11.125,61.5,22.65158,-1.875,0.003609269
56122.1894,11.3125,61.5,22.50956,-1.9375,0.003858437
56122.1919,11.25,61.375,22.82217,-1.5625,0.003883354
56122.1944,11.1875,61.25,23.26287,-1.9375,0.003934745
56122.1969,11.1875,61.1875,23.41692,-1.625,0.003951875
56122.1994,11.125,61.125,23.02743,-1.9375,0.003964334
56122.2019,11.1875,60.75,22.14195,-1.875,0.003992365
56122.2044,11.25,60.375,21.08542,-1.8125,0.004021954
56122.2069,11.25,60.1875,20.28116,-1.5625,0.004039084
56122.2094,11.25,59.875,20.0201,-1.4375,0.004034412
56122.2119,11.1875,59.375,20.30285,-1.4375,0.004028183
56122.2144,11.1875,59.1875,20.83584,-0.9375,0.004045313
56122.2169,11.375,58.625,21.18056,-1.3125,0.004081131
56122.2194,11.4375,58.125,20.97557,-1.5625,0.004087361
56122.2219,11.3125,57.6875,20.11797,-1.0625,0.004060886
56122.2244,11.3125,57.3125,18.81627,-0.8125,0.004048428
56122.2269,11.4375,56.875,17.49291,-1.0,0.004060886
56122.2294,11.3125,56.25,16.58892,-1.125,0.004087361
56122.2319,11.375,55.875,16.36589,-1.0,0.004079574
56122.2344,11.4375,55.1875,16.7957,-1.1875,0.004064001
56122.2369,11.375,54.625,17.58262,-0.6875,0.004060886
56122.2394,11.5,54.25,18.29927,-0.5625,0.004073345
56122.2419,11.4375,53.6875,18.57082,-1.125,0.004079574
56122.2444,11.625,53.25,18.22683,-1.0625,0.004068673
56122.2469,11.5,52.75,17.36074,-1.1875,0.004051543
56122.2494,11.5625,52.375,16.2815,-1.125,0.004057772
56122.2519,11.5625,52.0,15.38577,-1.25,0.004067116
56122.2544,11.5625,51.5625,15.00639,-1.3125,0.004060886
56122.2569,11.4375,51.3125,15.29624,-1.0,0.004048428
56122.2594,11.5,51.125,16.1873,-1.5625,0.004032855
56122.2619,11.5,50.875,17.43212,-1.1875,0.00402974
56122.2644,11.5,50.625,18.70563,-1.125,0.004048428
56122.2669,11.625,50.125,19.7244,-1.0625,0.004043756
56122.2694,11.5625,50.0,20.33824,-0.8125,0.00402974
56122.2719,11.5625,49.6875,20.56242,-0.875,0.004015725
56122.2744,11.5625,49.375,20.54318,-1.1875,0.004011053
56122.2769,11.625,48.875,20.47622,-1.625,0.004071788
56122.2794,11.6875,48.6875,20.51498,-1.5625,0.003821062
56122.2819,11.5625,48.4375,20.7085,-1.3125,0.004473571
56122.2844,11.75,48.25,20.99372,-1.5625,0.003134293
56122.2869,11.6875,47.9375,21.24128,-1.1875,-0.002443958
56122.2894,11.75,47.75,21.33006,-1.0,-0.002744517
56122.2919,11.9375,47.4375,21.21176,-1.0625,-0.003080893
56122.2944,11.75,47.25,20.93316,-1.1875,-0.002197904
56122.2969,11.75,47.125,20.60665,-0.9375,0.003219944
56122.2994,11.6875,46.8125,20.3465,-1.125,0.003900484
56122.3019,11.8125,46.625,20.20618,-1.0625,0.003606155
56122.3044,11.625,46.25,20.15154,-1.5,0.00388024
56122.3069,11.8125,46.125,20.08433,-1.75,0.003877125
56122.3094,11.75,46.0,19.90281,-1.375,0.003928516
56122.3119,11.8125,45.6875,19.56511,-1.0,0.003998594
56122.3144,11.75,45.5625,19.11911,-1.125,0.004043756
56122.3169,11.6875,45.4375,18.68114,-1.3125,0.004064001
56122.3194,11.8125,45.3125,18.3739,-1.5,0.004076459
56122.3219,11.6875,44.9375,18.25825,-1.0625,0.004084246
56122.3244,11.5625,44.875,18.29714,-0.6875,0.00411072
56122.3269,11.5625,44.8125,18.37349,-1.1875,0.004132522
56122.3294,11.6875,44.75,18.35387,-1.1875,0.004149653
56122.3319,11.625,44.5,18.16411,-0.9375,0.004157439
56122.3344,11.875,44.3125,17.83489,-1.125,0.004162111
56122.3369,11.8125,44.1875,17.49117,-1.4375,0.004165226
56122.3394,11.75,44.375,17.2895,-1.4375,0.00415121
56122.3419,12.0,44.0,17.33554,-1.1875,0.004106048
56122.3444,11.75,44.0,17.62597,-1.375,0.004084246
56122.3469,11.75,43.9375,18.04637,-1.4375,0.004092032
56122.3494,11.8125,43.5625,18.42695,-1.75,0.00409359
56122.3519,11.8125,43.5,18.62709,-1.0,0.004056215
56122.3544,11.75,43.5625,18.60408,-1.0625,0.004028183
56122.3569,11.75,43.4375,18.42966,-1.0,0.00402974
56122.3594,11.8125,43.3125,18.24709,-1.3125,0.004034412
56122.3619,11.875,43.1875,18.18991,-1.125,0.004042199
56122.3644,11.6875,43.0,18.30607,-1.125,0.004031298
56122.3669,11.6875,42.8125,18.52887,-0.875,0.004001709
56122.3694,11.8125,42.9375,18.70973,-1.0,0.004011053
56122.3719,11.8125,42.6875,18.69729,-0.9375,0.004020397
56122.3744,11.8125,42.5,18.4217,-0.5625,0.004007938
56122.3769,11.75,42.375,17.93928,-0.8125,0.003997037
56122.3794,11.8125,42.25,17.41323,-0.9375,0.003984579
56122.3819,11.8125,42.25,17.03865,-0.6875,0.003984579
56122.3844,11.75,42.125,16.9475,-1.0,0.00399548
56122.3869,11.75,42.0625,17.13981,-0.8125,0.003981464
56122.3894,11.9375,41.875,17.47441,-0.8125,0.003958105
56122.3919,11.9375,41.75,17.72505,-0.6875,0.004057772
56122.3944,11.875,41.8125,17.67676,-0.9375,0.003539191
56122.3969,11.9375,41.75,17.21913,-0.8125,0.004984366
56122.3994,11.875,41.5625,16.39465,-0.75,0.002117375
56122.4019,11.75,41.4375,15.38071,-0.75,-0.009568607
56122.4044,11.8125,41.1875,14.41374,-0.6875,-0.009714993
56122.4069,11.875,41.125,13.68972,-0.875,-0.0096418
56122.4094,11.875,41.125,13.28495,-1.1875,-0.00712676
56122.4119,11.9375,41.0625,13.13156,-1.25,0.003618613
56122.4144,11.875,40.8125,13.0577,-1.125,0.004713395
56122.4169,11.9375,40.6875,12.8728,-1.3125,0.004205715
56122.4194,12.0625,40.8125,12.45927,-1.25,0.004732083
56122.4219,11.9375,40.5,11.82847,-1.25,0.004313169
56122.4244,11.8125,40.625,11.11493,-1.125,0.003831963
56122.4269,11.8125,40.625,10.51085,-1.125,0.003736968
56122.4294,11.9375,40.5,10.1707,-1.25,0.003793031
56122.4319,11.8125,40.375,10.13069,-1.3125,0.003830406
56122.4344,12.0,40.125,10.28228,-1.25,0.003875568
56122.4369,12.0,40.3125,10.41636,-1.3125,0.003906714
56122.4394,12.0625,40.25,10.32064,-1.0,0.003933188
56122.4419,11.9375,39.875,9.886885,-1.375,0.003965891
56122.4444,12.0625,39.875,9.176965,-1.5625,0.004007938
56122.4469,12.1875,39.9375,8.410392,-1.375,0.004021954
56122.4494,12.0625,39.625,7.872766,-0.875,0.004014167
56122.4519,12.0,39.625,7.783216,-0.8125,0.00401261
56122.4544,11.875,39.6875,8.181815,-0.75,0.004020397
56122.4569,11.9375,39.5625,8.893515,-0.75,0.004020397
56122.4594,12.0,39.4375,9.593406,-0.8125,0.004015725
56122.4619,12.0,39.5,9.951058,-0.75,0.003990808
56122.4644,11.8125,39.3125,9.791791,-0.9375,0.003984579
56122.4669,12.0,39.375,9.199332,-1.4375,0.004004824
56122.4694,12.0,39.3125,8.506622,-1.125,0.004011053
56122.4719,12.0,39.1875,8.174397,-0.9375,0.003993923
56122.4744,12.0,39.0,8.604975,-0.875,0.00397212
56122.4769,12.0625,39.0,9.976805,-0.75,0.003965891
56122.4794,11.875,39.0625,12.17677,-0.625,0.003992365
56122.4819,11.8125,38.8125,14.86357,-0.75,0.004000152
56122.4844,12.125,38.6875,17.6328,-0.625,0.003984579
56122.4869,12.25,38.625,20.20505,-0.625,0.003969006
56122.4894,12.0625,38.6875,22.54628,-1.5625,0.003998594
56122.4919,11.875,38.625,24.86269,-1.5,0.004026626
56122.4944,11.9375,38.6875,27.4731,-1.0,0.004021954
56122.4969,12.125,38.5,30.62264,-1.25,0.004011053
56122.4994,12.0625,38.4375,34.33038,-1.375,0.004015725
56122.5019,12.25,38.25,38.34679,-1.25,0.004023511
56122.5044,12.0625,38.1875,42.24265,-1.5625,0.004026626
56122.5069,12.25,38.125,45.58681,-2.0,0.004118507
56122.5094,12.125,37.875,48.12818,-1.875,0.003551649
56122.5119,12.0625,37.8125,49.89639,-1.6875,0.005052887
56122.5144,11.9375,37.8125,51.17694,-1.5625,0.002073771
56122.5169,12.0,37.6875,52.37848,-1.375,-0.009971948
56122.5194,12.1875,37.6875,53.85815,-1.25,-0.009978177
56122.5219,12.0,37.625,55.78681,-1.3125,-0.0103348
56122.5244,12.0625,37.625,58.10948,-1.6875,-0.007900738
56122.5269,12.0,37.625,60.60574,-1.5625,0.003979907
56122.5294,12.25,37.5,63.01043,-1.3125,0.004837979
56122.5319,12.1875,37.375,65.12928,-1.0,0.003850651
56122.5344,12.125,37.4375,66.89706,-1.25,0.004294481
56122.5369,11.9375,37.375,68.36303,-1.625,0.0041917
56122.5394,12.0625,37.25,69.62476,-1.25,0.004204158
56122.5419,12.1875,37.25,70.75735,-0.75,0.004193257
56122.5444,12.3125,37.125,71.77866,-0.8125,0.004179241
56122.5469,12.25,37.1875,72.66345,-0.5,0.004190142
56122.5494,12.125,36.9375,73.38918,-0.1875,0.004199486
56122.5519,12.25,37.0,73.9778,-0.375,0.00422596
56122.5544,12.25,37.0,74.5028,-0.4375,0.004216616
56122.5569,12.1875,37.0,75.05589,-0.375,0.004193257
56122.5594,12.25,36.875,75.69341,-0.4375,0.004193257
56122.5619,12.1875,36.875,76.39649,-0.25,0.004201043
56122.5644,12.125,36.75,77.07147,-0.625,0.004218174
56122.5669,12.4375,36.75,77.59367,-0.5,0.004213502
56122.5694,12.25,36.625,77.87168,-0.5,0.004179241
56122.5719,12.25,36.625,77.89693,-0.4375,0.004162111
56122.5744,12.3125,36.625,77.75013,-0.4375,0.004163668
56122.5769,12.25,36.4375,77.56158,-0.75,0.004176127
56122.5794,12.375,36.375,77.44512,-0.875,0.004169897
56122.5819,12.25,36.25,77.44249,-0.4375,0.004148095
56122.5844,12.1875,36.3125,77.50642,-0.3125,0.004157439
56122.5869,12.0625,36.25,77.53033,-0.8125,0.004173012
56122.5894,12.3125,36.25,77.40584,-0.625,0.004176127
56122.5919,12.4375,36.25,77.07611,-0.4375,0.004157439
56122.5944,12.3125,36.375,76.55649,-0.875,0.004141866
56122.5969,12.375,36.4375,75.91464,-0.5625,0.004162111
56122.5994,12.25,36.375,75.22543,-0.75,0.004201043
56122.6019,12.3125,36.75,74.52875,-0.5,0.004196372
56122.6044,12.25,37.1875,73.81432,-0.75,0.00418547
56122.6069,12.3125,37.9375,73.04071,-0.5,0.004207273
56122.6094,12.375,38.9375,72.17351,-1.0,0.004239976
56122.6119,12.3125,39.875,71.21622,-0.8125,0.004272679
56122.6144,12.1875,40.75,70.21381,-0.5625,0.004275794
56122.6169,12.3125,41.1875,69.22572,-0.8125,0.004272679
56122.6194,12.1875,41.6875,68.28696,-1.0,0.004288252
56122.6219,12.1875,42.1875,67.38378,-0.5,0.00444554
56122.6244,12.3125,42.6875,66.46215,-0.75,0.003744754
56122.6269,12.25,42.9375,65.46639,-0.6875,0.005664906
56122.6294,12.25,43.25,64.3825,-0.6875,0.001704691
56122.6319,12.25,43.8125,63.25957,-1.1875,-0.01346342
56122.6344,12.25,44.1875,62.1913,-0.75,-0.01248543
56122.6369,12.25,44.5625,61.26542,-0.875,-0.01256485
56122.6394,12.25,45.125,60.50964,-0.5,-0.009419106
56122.6419,12.25,45.625,59.86946,-0.375,0.005219518
56122.6444,12.0625,46.0,59.23534,-0.5,0.005607286
56122.6469,12.1875,46.625,58.50698,-0.625,0.004158996
56122.6494,12.125,46.9375,57.65776,-0.75,0.004663562
56122.6519,12.125,47.5,56.75764,-0.6875,0.004442425
56122.6544,12.0,48.0625,55.93492,-0.375,0.00438792
56122.6569,12.3125,48.75,55.29224,-0.375,0.004353659
56122.6594,12.25,49.375,54.8267,-0.625,0.004352102
56122.6619,12.25,50.0,54.40516,-0.5,0.004333414
56122.6644,12.25,50.625,53.81979,-0.625,0.004296039
56122.6669,12.25,51.3125,52.89984,-0.625,0.004286695
56122.6694,12.125,52.0,51.61966,-0.8125,0.004286695
56122.6719,12.1875,52.5625,50.13623,-0.8125,0.004292924
56122.6744,12.375,53.375,48.72326,-1.0,0.004285138
56122.6769,12.25,54.0,47.62659,-1.5,0.004250877
56122.6794,12.1875,54.6875,46.91542,-1.1875,0.004241533
56122.6819,12.3125,55.375,46.41537,-1.125,0.004235304
56122.6844,12.25,56.0625,45.77128,-0.8125,0.004224403
56122.6869,12.125,56.75,44.6181,-0.375,0.004204158
56122.6894,12.1875,57.25,42.77436,-0.875,0.004173012
56122.6919,12.1875,58.0,40.35188,-0.625,0.004169897
56122.6944,12.25,58.6875,37.71297,-0.3125,0.004173012
56122.6969,12.3125,59.25,35.2867,-0.3125,0.004165226
56122.6994,12.0,59.75,33.33563,-0.625,0.004154324
56122.7019,12.0625,60.3125,31.79972,-0.625,0.004121621
56122.7044,12.1875,60.6875,30.31085,-0.6875,0.004126293
56122.7069,12.1875,61.0625,28.38391,-0.3125,0.004143423
56122.7094,12.0625,61.6875,25.69474,-1.0,0.004135637
56122.7119,12.1875,61.875,22.30064,-1.25,0.004120064
56122.7144,11.9375,62.1875,18.68133,-0.8125,0.004107605
56122.7169,12.0625,62.625,15.56675,-0.625,0.004121621
56122.7194,12.1875,62.75,13.62733,-0.125,0.00413408
56122.7219,12.125,63.0,13.17689,-0.25,0.004123178
56122.7244,12.0625,63.1875,14.03456,0.0,0.00409359
56122.7269,12.25,63.4375,15.61326,-1.0,0.004095147
56122.7294,12.125,63.375,17.18801,-0.625,0.004109163
56122.7319,12.1875,63.1875,18.20793,-0.8125,0.004120064
56122.7344,12.0625,63.1875,18.4988,-0.8125,0.004109163
56122.7369,12.0625,63.3125,18.26477,-1.1875,0.004232189
56122.7394,12.0625,63.3125,17.90568,-0.75,0.00344731
56122.7419,12.25,63.1875,17.76038,-1.1875,0.00563376
56122.7444,12.1875,63.3125,17.91757,-1.0625,0.001158078
56122.7469,12.125,63.25,18.19045,-1.0625,-0.01494441
56122.7494,12.0625,63.1875,18.25592,-1.4375,-0.01223159
56122.7519,12.125,63.0,17.86799,-1.3125,-0.01197308
56122.7544,12.0,62.75,17.01849,-1.25,-0.008691847
56122.7569,12.25,62.5625,15.95319,-1.1875,0.006128981
56122.7594,12.25,62.1875,15.03745,-0.875,0.005485816
56122.7619,12.25,61.9375,14.55187,-0.8125,0.00389737
56122.7644,12.25,61.625,14.53614,-0.8125,0.004529634
56122.7669,12.1875,61.125,14.77047,-0.4375,0.00432407
56122.7694,12.0,60.75,14.90462,-0.8125,0.004292924
56122.7719,12.25,60.25,14.6608,-1.0,0.004261778
56122.7744,12.3125,59.75,13.99517,-1.3125,0.004244648
56122.7769,12.1875,59.125,13.12634,-1.1875,0.004257106
56122.7794,12.25,58.8125,12.41346,-1.5,0.004261778
56122.7819,12.0,58.3125,12.15109,-1.4375,0.004252434
56122.7844,12.0625,57.6875,12.39398,-1.5625,0.004222846
56122.7869,12.0625,57.1875,12.9105,-1.4375,0.004218174
56122.7894,12.1875,56.6875,13.29252,-1.3125,0.00422596
56122.7919,12.0625,56.125,13.16829,-1.25,0.004219731
56122.7944,11.9375,55.4375,12.40724,-0.875,0.004196372
56122.7969,12.125,55.0625,11.20993,-1.1875,0.004162111
56122.7994,12.1875,54.4375,10.03301,-1.0,0.004158996
56122.8019,12.3125,54.125,9.383903,-0.875,0.004173012
56122.8044,12.0625,53.8125,9.584464,-1.0,0.004162111
56122.8069,12.25,53.5625,10.61714,-0.625,0.004144981
56122.8094,12.25,53.4375,12.12645,-0.6875,0.004121621
56122.8119,12.3125,53.125,13.57295,-1.0,0.004112277
56122.8144,12.125,52.9375,14.46596,-0.6875,0.004132522
56122.8169,12.25,52.875,14.5678,-0.9375,0.00412785
56122.8194,12.1875,52.3125,13.98005,-0.75,0.004098262
56122.8219,12.4375,52.0625,13.08045,-0.875,0.004081131
56122.8244,12.3125,51.625,12.34717,-0.75,0.004074902
56122.8269,12.25,51.375,12.15409,-1.0,0.004081131
56122.8294,12.25,50.875,12.62646,-1.125,0.004088918
56122.8319,12.375,50.6875,13.61254,-1.0625,0.004071788
56122.8344,12.375,50.375,14.77169,-1.125,0.004065558
56122.8369,12.25,50.25,15.72976,-1.0625,0.004068673
56122.8394,12.3125,49.875,16.22908,-1.25,0.004081131
56122.8419,12.3125,49.6875,16.21168,-1.4375,0.004074902
56122.8444,12.375,49.4375,15.80975,-1.0625,0.004048428
56122.8469,12.375,49.25,15.26051,-1.125,0.004051543
56122.8494,12.375,48.9375,14.7918,-1.25,0.004060886
56122.8519,12.375,48.875,14.53156,-1.6875,0.004059329
56122.8544,12.3125,48.625,14.47551,-0.9375,0.004096704
56122.8569,12.375,48.375,14.51747,-1.5625,0.00379926
56122.8594,12.4375,48.1875,14.51814,-1.25,0.004526519
56122.8619,12.5,48.0,14.37485,-1.75,0.003084459
56122.8644,12.3125,47.875,14.06101,-1.125,-0.002937622
56122.8669,12.3125,47.8125,13.62294,-1.5,-0.003182118
56122.8694,12.4375,47.5625,13.14444,-1.25,-0.003245967
56122.8719,12.4375,47.4375,12.70259,-1.5625,-0.001895788
56122.8744,12.375,47.25,12.33815,-1.25,0.003560993
56122.8769,12.25,47.1875,12.05157,-0.8125,0.004071788
56122.8794,12.3125,46.9375,11.82017,-0.875,0.003721395
56122.8819,12.3125,46.8125,11.62055,-1.3125,0.004049985
56122.8844,12.1875,46.5,11.44187,-1.1875,0.004116949
56122.8869,12.3125,46.5,11.28418,-1.4375,0.00418547
56122.8894,12.5,46.25,11.14753,-1.75,0.0041917
56122.8919,12.4375,46.4375,11.02354,-1.75,0.004158996
56122.8944,12.4375,46.1875,10.89803,-1.875,0.004152767
56122.8969,12.4375,46.0,10.76381,-1.6875,0.004146538
56122.8994,12.375,45.8125,10.63332,-1.8125,0.004155882
56122.9019,12.1875,45.625,10.53889,-1.5625,0.004143423
56122.9044,12.3125,45.5,10.51585,-1.75,0.004101376
56122.9069,12.4375,45.375,10.57594,-2.0625,0.004102934
56122.9094,12.5,45.3125,10.68741,-1.25,0.004129408
56122.9119,12.4375,45.25,10.77781,-1.5625,0.00412785
56122.9144,12.375,45.0625,10.76447,-1.4375,0.004120064
56122.9169,12.5625,45.125,10.59766,-1.125,0.004112277
56122.9194,12.5,44.875,10.29376,-1.3125,0.00411072
56122.9219,12.4375,44.8125,9.936948,-1.125,0.004126293
56122.9244,12.5625,44.5625,9.643558,-2.0625,0.004129408
56122.9269,12.375,44.5,9.506586,-1.9375,0.004104491
56122.9294,12.5,44.4375,9.5488,-1.4375,0.004096704
56122.9319,12.5,44.3125,9.710289,-1.75,0.004098262
56122.9344,12.5625,44.25,9.879502,-1.1875,0.004107605
56122.9369,12.4375,44.0625,9.950485,-1.125,0.004102934
56122.9394,12.5,43.9375,9.874201,-1.0625,0.004079574
56122.9419,12.5625,43.8125,9.674631,-1.25,0.004060886
56122.9444,12.4375,43.6875,9.42027,-1.0,0.004062444
56122.9469,12.625,43.5625,9.169731,-1.25,0.004071788
56122.9494,12.4375,43.375,8.926848,-1.5,0.004059329
56122.9519,12.4375,43.25,8.63655,-1.4375,0.004034412
56122.9544,12.4375,43.3125,8.227233,-1.125,0.004014167
56122.9569,12.5625,43.1875,7.67519,-1.4375,0.003989251
56122.9594,12.6875,43.125,7.048236,-1.125,0.003919172
56122.9619,12.75,43.0625,6.495244,-1.375,0.003833521
56122.9644,12.625,42.9375,6.177804,-1.125,0.003883354
56122.9669,12.6875,42.8125,6.178549,-1.125,0.004031298
56122.9694,12.5625,42.625,6.439651,-0.9375,0.00422596
56122.9719,12.625,42.75,6.772979,-1.1875,0.004428409
56122.9744,12.75,42.25,6.946162,-1.5625,0.00443931
56122.9769,12.5625,42.4375,6.803556,-0.9375,0.004157439
56122.9794,12.6875,42.1875,6.355819,-1.125,0.003813276
56122.9819,12.625,42.125,5.783817,-1.1875,0.003768114
56122.9844,12.625,42.0625,5.347476,-0.9375,0.003779015
56122.9869,12.6875,41.9375,5.243784,-0.5625,0.0037759
56122.9894,12.6875,42.0,5.491999,-0.75,0.003794588
56122.9919,12.8125,41.8125,5.914127,-1.0,0.003842864
56122.9944,12.8125,41.875,6.229672,-0.8125,0.003908271
56122.9969,12.6875,41.625,6.218963,-0.9375,0.003933188
56122.9994,12.625,41.6875,5.86619,-0.75,0.003922287
56123.0019,12.6875,41.5,5.396458,-0.8125,0.0039145
56123.0044,12.625,41.4375,5.174965,-1.125,0.003920729
56123.0069,12.8125,41.375,5.51026,-1.25,0.003933188
56123.0094,12.875,41.3125,6.462941,-1.0625,0.003922287
56123.0119,12.8125,41.1875,7.76665,-1.875,0.003902042
56123.0144,12.75,41.0625,8.918723,-1.5625,0.003906714
56123.0169,12.6875,41.0625,9.412292,-1.375,0.00393163
56123.0194,12.625,41.0,9.00095,-1.3125,0.00393786
56123.0219,12.6875,40.8125,7.864441,-1.0625,0.003920729
56123.0244,12.6875,40.75,6.583821,-0.875,0.003903599
56123.0269,12.875,40.5625,5.924977,-1.125,0.003909828
56123.0294,12.8125,40.5625,6.523768,-1.4375,0.003920729
56123.0319,12.625,40.5625,8.618365,-1.25,0.003926959
56123.0344,12.8125,40.4375,11.95602,-0.9375,0.003919172
56123.0369,12.8125,40.375,15.91953,-1.3125,0.003908271
56123.0394,12.9375,40.3125,19.81412,-1.0625,0.003912943
56123.0419,12.9375,40.125,23.17841,-1.375,0.003923844
56123.0444,12.875,40.125,25.97388,-1.0625,0.003920729
56123.0469,13.0625,40.0625,28.56417,-1.0,0.003908271
56123.0494,12.8125,39.9375,31.49997,-1.125,0.003905156
56123.0519,12.75,39.75,35.2165,-1.875,0.003912943
56123.0544,12.8125,39.75,39.79253,-1.5625,0.003923844
56123.0569,12.75,39.625,44.88555,-1.375,0.003919172
56123.0594,12.625,39.5,49.87216,-1.6875,0.003895813
56123.0619,12.5625,39.5,54.12529,-1.3125,0.003894255
56123.0644,12.6875,39.5,57.29587,-1.6875,0.003909828
56123.0669,12.75,39.375,59.4678,-1.8125,0.003926959
56123.0694,12.6875,39.25,61.11641,-1.5625,0.003916057
56123.0719,12.625,39.25,62.89207,-1.75,0.003892698
56123.0744,12.875,39.375,65.32899,-2.0625,0.003891141
56123.0769,13.0,39.1875,68.60973,-1.5,0.003911386
56123.0794,12.875,39.0,72.48611,-1.25,0.0039145
56123.0819,12.9375,38.875,76.38416,-1.375,0.003908271
56123.0844,12.8125,38.875,79.6405,-1.4375,0.003889583
56123.0869,12.75,38.8125,81.76751,-1.0625,0.003894255
56123.0894,12.8125,38.9375,82.63498,-1.3125,0.003911386
56123.0919,12.875,38.8125,82.50082,-1.3125,0.003900484
56123.0944,12.6875,38.75,81.89034,-0.875,0.003891141
56123.0969,12.6875,38.6875,81.38364,-1.3125,0.003881797
56123.0994,12.75,38.5625,81.40499,-1.4375,0.003894255
56123.1019,12.8125,38.625,82.09612,-1.625,0.003920729
56123.1044,12.8125,38.4375,83.31181,-1.0625,0.003908271
56123.1069,12.8125,38.375,84.72311,-1.125,0.003883354
56123.1094,12.8125,38.1875,85.97192,-1.1875,0.003881797
56123.1119,13.0,38.1875,86.80852,-1.4375,0.003891141
56123.1144,12.8125,38.0,87.16171,-1.25,0.003909828
56123.1169,13.0625,37.875,87.12698,-1.0,0.003908271
56123.1194,13.0,37.9375,86.89369,-1.0625,0.003888026
56123.1219,12.8125,37.6875,86.65293,-1.4375,0.003891141
56123.1244,12.9375,37.75,86.52649,-0.875,0.003906714
56123.1269,12.8125,37.625,86.53941,-0.5,0.003911386
56123.1294,12.875,37.4375,86.63505,-0.625,0.003902042
56123.1319,12.625,37.5625,86.71465,-0.875,0.003883354
56123.1344,12.8125,37.5,86.67855,-0.875,0.003888026
56123.1369,12.75,37.625,86.45394,-0.6875,0.003911386
56123.1394,12.8125,37.6875,86.00591,-0.875,0.0039145
56123.1419,12.9375,37.8125,85.33743,-1.3125,0.003902042
56123.1444,12.9375,37.75,84.48504,-0.9375,0.003889583
56123.1469,13.0,38.25,83.5127,-1.8125,0.003902042
56123.1494,12.8125,38.6875,82.50087,-1.1875,0.003939417
56123.1519,13.0,39.5,81.52816,-1.375,0.003945646
56123.1544,12.9375,40.625,80.64793,-1.125,0.003933188
56123.1569,12.9375,41.4375,79.86846,-1.4375,0.003939417
56123.1594,12.8125,42.1875,79.1483,-1.4375,0.003956547
56123.1619,12.8125,42.875,78.41315,-1.125,0.003989251
56123.1644,12.75,43.4375,77.58925,-1.1875,0.004001709
56123.1669,12.625,43.875,76.63811,-1.1875,0.004001709
56123.1694,12.5625,44.4375,75.57425,-1.125,0.004011053
56123.1719,12.6875,44.75,74.45496,-1.1875,0.004021954
56123.1744,12.8125,45.3125,73.34692,-1.125,0.004048428
56123.1769,13.0,45.6875,72.28985,-1.1875,0.004056215
56123.1794,12.75,46.1875,71.27813,-1.1875,0.004037527
56123.1819,12.8125,46.5625,70.27415,-1.375,0.004037527
56123.1844,12.75,47.0625,69.24284,-1.875,0.004042199
56123.1869,12.75,47.375,68.18813,-1.1875,0.004032855
56123.1894,12.6875,48.0,67.16571,-0.9375,0.003989251
56123.1919,12.8125,48.5625,66.25931,-0.8125,0.003964334
56123.1944,12.875,49.25,65.53135,-0.875,0.00397835
56123.1969,12.9375,50.0,64.97721,-1.0625,0.003976792
56123.1994,12.8125,50.5625,64.51331,-0.875,0.004059329
56123.2019,12.625,51.1875,64.01095,-0.8125,0.003546977
56123.2044,12.5625,51.9375,63.35984,-1.125,0.004786588
56123.2069,12.6875,52.625,62.52495,-1.6875,0.002246631
56123.2094,12.75,53.3125,61.56094,-1.3125,-0.008132776
56123.2119,12.8125,54.0,60.57191,-1.1875,-0.008307194
56123.2144,12.6875,54.75,59.63898,-0.875,-0.008504971
56123.2169,12.6875,55.375,58.76033,-1.25,-0.006483595
56123.2194,12.75,56.25,57.84555,-0.875,0.003369445
56123.2219,12.6875,57.0625,56.77295,-0.8125,0.004268007
56123.2244,12.6875,58.0,55.48027,-1.4375,0.003546977
56123.2269,12.75,58.8125,54.03134,-1.4375,0.003940974
56123.2294,12.6875,59.6875,52.60694,-1.5625,0.003894255
56123.2319,12.6875,60.5625,51.41151,-1.0625,0.003928516
56123.2344,12.625,61.375,50.54018,-1.375,0.003947203
56123.2369,12.75,61.75,49.88314,-1.0625,0.003926959
56123.2394,12.75,62.4375,49.13494,-1.0,0.00389737
56123.2419,12.625,63.0625,47.92178,-1.125,0.003908271
56123.2444,12.5625,63.6875,45.99068,-1.3125,0.003936302
56123.2469,12.6875,64.1875,43.35884,-1.8125,0.003953433
56123.2494,12.4375,64.625,40.33084,-1.75,0.003944089
56123.2519,12.5625,64.875,37.35642,-0.9375,0.003923844
56123.2544,12.5,65.4375,34.79135,-1.0625,0.003920729
56123.2569,12.6875,65.8125,32.68736,-0.8125,0.003933188
56123.2594,12.625,66.125,30.73622,-0.75,0.003926959
56123.2619,12.6875,66.25,28.41982,-0.6875,0.003902042
56123.2644,12.5625,66.5,25.30758,-0.5625,0.003881797
56123.2669,12.5625,66.6875,21.35304,-0.8125,0.003884911
56123.2694,12.6875,66.875,17.0266,-1.0,0.00389737
56123.2719,12.6875,66.875,13.19247,-1.0625,0.003886469
56123.2744,12.5625,67.0,10.76645,-0.625,0.00385688
56123.2769,12.5,67.0625,10.30875,-0.3125,0.003850651
56123.2794,12.6875,67.3125,11.74995,-0.4375,0.003861552
56123.2819,12.4375,67.0625,14.39076,-0.5625,0.00387401
56123.2844,12.625,67.0,17.18349,-0.625,0.003869338
56123.2869,12.5625,66.9375,19.16347,-0.9375,0.00383975
56123.2894,12.5625,66.6875,19.82408,-0.375,0.003842864
56123.2919,12.5,66.625,19.25968,-0.5625,0.003852208
56123.2944,12.5,66.625,18.02157,-0.625,0.003855323
56123.2969,12.4375,66.3125,16.77779,-0.8125,0.003849094
56123.2994,12.625,65.9375,15.96272,-0.75,0.003827291
56123.3019,12.5,65.8125,15.59664,-0.6875,0.003836635
56123.3044,12.4375,65.625,15.3547,-0.375,0.003855323
56123.3069,12.4375,65.1875,14.82665,-0.875,0.003850651
56123.3094,12.4375,64.6875,13.80709,-0.75,0.00383975
56123.3119,12.5,64.375,12.44717,-0.8125,0.003822619
56123.3144,12.375,63.875,11.18336,-1.0625,0.003881797
56123.3169,12.3125,63.5625,10.48938,-1.0625,0.003631072
56123.3194,12.375,63.125,10.59763,-1.0625,0.004375461
56123.3219,12.4375,62.5,11.35235,-0.6875,0.002847749
56123.3244,12.5,61.9375,12.28103,-1.125,-0.003177446
56123.3269,12.5625,61.375,12.84526,-1.0,-0.003157201
56123.3294,12.4375,60.75,12.73024,-1.0625,-0.003453088
56123.3319,12.3125,60.125,12.0109,-1.0625,-0.002453301
56123.3344,12.4375,59.5625,11.1021,-1.0,0.00333207
56123.3369,12.4375,59.0,10.52147,-1.5625,0.003755656
56123.3394,12.5,58.4375,10.59663,-1.875,0.003383461
56123.3419,12.3125,57.8125,11.28039,-1.6875,0.003713608
56123.3444,12.4375,57.125,12.17594,-1.625,0.003730739
56123.3469,12.25,56.4375,12.75789,-1.625,0.003763442
56123.3494,12.25,56.0,12.66696,-1.5625,0.003800817
56123.3519,12.3125,55.625,11.91752,-2.0,0.00385688
56123.3544,12.375,55.125,10.90535,-2.125,0.00388024
56123.3569,12.3125,54.75,10.21168,-1.6875,0.003891141
56123.3594,12.4375,54.625,10.31013,-1.5625,0.003891141
56123.3619,12.375,54.25,11.33035,-1.4375,0.003916057
56123.3644,12.5,53.8125,12.99906,-1.5625,0.003948761
56123.3669,12.3125,53.5625,14.78214,-1.375,0.00395499
56123.3694,12.5625,53.3125,16.14594,-0.9375,0.003944089
56123.3719,12.4375,52.8125,16.79958,-1.0,0.003928516
56123.3744,12.4375,52.4375,16.79841,-1.0625,0.003942532
56123.3769,12.4375,52.125,16.46949,-1.4375,0.003961219
56123.3794,12.5,51.8125,16.21498,-1.3125,0.003953433
56123.3819,12.4375,51.375,16.30676,-1.0625,0.003944089
56123.3844,12.375,51.1875,16.77864,-1.1875,0.003936302
56123.3869,12.3125,51.0,17.45949,-0.9375,0.003939417
56123.3894,12.3125,50.6875,18.11,-1.125,0.003950318
56123.3919,12.375,50.375,18.57332,-0.6875,0.003940974
56123.3944,12.5,50.125,18.85253,-1.0,0.003919172
56123.3969,12.5625,49.9375,19.079,-1.6875,0.003923844
56123.3994,12.25,49.6875,19.40276,-1.4375,0.003944089
56123.4019,12.3125,49.3125,19.87825,-1.0,0.003940974
56123.4044,12.4375,49.25,20.41792,-0.625,0.003919172
56123.4069,12.3125,49.125,20.84043,-0.6875,0.003883354
56123.4094,12.5,48.625,20.98222,-1.0625,0.003886469
56123.4119,12.625,48.5,20.80348,-0.8125,0.003908271
56123.4144,12.5625,48.25,20.42447,-1.0,0.00389737
56123.4169,12.4375,48.1875,20.06941,-1.75,0.003894255
56123.4194,12.4375,47.8125,19.94965,-1.5625,0.003895813
56123.4219,12.4375,47.75,20.15204,-1.5,0.003909828
56123.4244,12.5625,47.5625,20.59477,-1.0,0.003942532
56123.4269,12.375,47.4375,21.07365,-1.0625,0.003948761
56123.4294,12.375,47.0625,21.37171,-1.25,0.004059329
56123.4319,12.375,47.125,21.37035,-1.3125,0.003385018
56123.4344,12.25,46.9375,21.10254,-1.0625,0.005199273
56123.4369,12.4375,46.6875,20.72262,-0.4375,0.001576992
56123.4394,12.3125,46.5625,20.41387,-0.6875,-0.01238732
56123.4419,12.25,46.375,20.28825,-0.6875,-0.01136262
56123.4444,12.4375,46.3125,20.33405,-0.1875,-0.01135795
56123.4469,12.4375,46.375,20.43734,-0.75,-0.008515872
56123.4494,12.5625,46.25,20.46101,-0.8125,0.004391034
56123.4519,12.5625,46.0,20.33286,-1.125,0.004813063
56123.4544,12.5625,45.8125,20.09127,-0.8125,0.003621728
56123.4569,12.5625,45.625,19.8632,-0.8125,0.004106048
56123.4594,12.5625,45.625,19.78798,-1.0625,0.00397835
56123.4619,12.625,45.5625,19.93203,-1.4375,0.003989251
56123.4644,12.5,45.125,20.24431,-1.1875,0.003967448
56123.4669,12.5,45.0625,20.57892,-1.6875,0.003967448
56123.4694,12.4375,45.0,20.77373,-1.4375,0.003992365
56123.4719,12.3125,44.75,20.74133,-1.625,0.004018839
56123.4744,12.375,44.6875,20.51869,-1.9375,0.004018839
56123.4769,12.4375,44.5625,20.24883,-1.8125,0.004000152
56123.4794,12.375,44.375,20.1023,-1.6875,0.003989251
56123.4819,12.375,44.25,20.18165,-1.1875,0.003998594
56123.4844,12.4375,43.9375,20.46268,-1.375,0.004018839
56123.4869,12.5,44.1875,20.80525,-1.25,0.004001709
56123.4894,12.375,43.9375,21.02924,-1.5625,0.003964334
56123.4919,12.5,43.6875,21.01533,-2.0625,0.003953433
56123.4944,12.4375,43.6875,20.77472,-1.875,0.003965891
56123.4969,12.5625,43.6875,20.44744,-1.4375,0.003976792
56123.4994,12.5625,43.5,20.22793,-1.6875,0.003967448
56123.5019,12.3125,43.375,20.25616,-1.1875,0.003945646
56123.5044,12.5,43.25,20.53403,-1.125,0.003936302
56123.5069,12.5,43.1875,20.91419,-1.4375,0.00393786
56123.5094,12.4375,43.125,21.16994,-1.6875,0.003923844
56123.5119,12.4375,43.0625,21.11041,-1.3125,0.003877125
56123.5144,12.375,42.875,20.67935,-1.625,0.003827291
56123.5169,12.375,42.5625,19.9838,-1.3125,0.003889583
56123.5194,12.4375,42.625,19.23695,-0.9375,0.004040642
56123.5219,12.5,42.4375,18.64724,-1.0625,0.004210387
56123.5244,12.375,42.375,18.3148,-1.1875,0.004408164
56123.5269,12.3125,42.25,18.19228,-1.5,0.004465785
56123.5294,12.5625,42.1875,18.12881,-1.375,0.00424932
56123.5319,12.5625,42.125,17.96907,-1.25,0.003912943
56123.5344,12.375,41.9375,17.64658,-0.75,0.003796145
56123.5369,12.4375,41.8125,17.2157,-0.875,0.003769671
56123.5394,12.25,41.5625,16.80396,-1.125,0.003768114
56123.5419,12.4375,41.5625,16.51681,-1.25,0.003800817
56123.5444,12.5,41.4375,16.35833,-1.8125,0.003867781
56123.5469,12.5,41.375,16.22429,-1.3125,0.004037527
56123.5494,12.3125,41.1875,15.97993,-1.375,0.003419279
56123.5519,12.375,41.4375,15.57878,-1.3125,0.005065345
56123.5544,12.3125,40.9375,15.14403,-1.25,0.002056641
56123.5569,12.5625,41.0,14.94752,-1.8125,-0.01009653
56123.5594,12.25,40.9375,15.27669,-1.3125,-0.01288099
56123.5619,12.5625,40.75,16.25038,-1.25,-0.007972374
56123.5644,12.4375,40.6875,17.6876,-1.1875,0.005580812
56123.5669,12.375,40.5,19.11993,-1.3125,0.005150997
56123.5694,12.3125,40.5,19.96895,-1.3125,0.00368402
56123.5719,12.375,40.3125,19.82246,-1.375,0.004275794
56123.5744,12.4375,40.375,18.67371,-0.75,0.004045313
56123.5769,12.4375,40.3125,16.99274,-1.4375,0.004067116
56123.5794,12.3125,40.375,15.57405,-1.125,0.004095147
56123.5819,12.375,40.125,15.21581,-0.875,0.004098262
56123.5844,12.375,40.0,16.37657,-1.25,0.004095147
56123.5869,12.3125,39.75,18.97767,-1.25,0.004081131
56123.5894,12.375,39.75,22.45455,-1.1875,0.004087361
56123.5919,12.4375,39.5,26.03875,-1.125,0.004102934
56123.5944,12.375,39.5,29.13513,-1.25,0.004095147
56123.5969,12.25,39.5,31.60692,-1.3125,0.004078017
56123.5994,12.1875,39.3125,33.8241,-1.4375,0.004074902
56123.6019,12.25,39.1875,36.44833,-1.5625,0.004074902
56123.6044,12.0625,39.0625,40.06146,-1.6875,0.004079574
56123.6069,12.1875,39.0,44.82508,-1.9375,0.004056215
56123.6094,12.3125,38.875,50.3469,-1.9375,0.004021954
56123.6119,12.1875,38.75,55.82443,-2.25,0.004020397
56123.6144,12.3125,38.625,60.39905,-1.8125,0.004025069
56123.6169,12.375,38.6875,63.55017,-1.875,0.00403597
56123.6194,12.125,38.375,65.33684,-1.5625,0.004018839
56123.6219,12.25,38.5,66.37019,-2.125,0.003990808
56123.6244,12.125,38.375,67.53197,-1.8125,0.003992365
56123.6269,12.0625,38.25,69.57346,-1.625,0.004003266
56123.6294,12.0625,38.25,72.78282,-1.875,0.004007938
56123.6319,12.0,38.125,76.86964,-1.125,0.003998594
56123.6344,12.0,38.0,81.10651,-1.1875,0.003990808
56123.6369,12.0625,37.9375,84.65349,-1.8125,0.004003266
56123.6394,12.0,37.875,86.90987,-1.8125,0.00401261
56123.6419,12.1875,37.9375,87.73851,-1.375,0.004004824
56123.6444,12.0,37.875,87.47954,-1.75,0.003987693
56123.6469,11.9375,37.6875,86.76796,-1.875,0.003983021
56123.6494,11.9375,37.375,86.25587,-2.0625,0.003992365
56123.6519,12.0625,37.5,86.36829,-1.9375,0.004007938
56123.6544,11.8125,37.4375,87.18888,-1.9375,0.00399548
56123.6569,11.9375,37.25,88.5008,-2.25,0.003979907
56123.6594,11.9375,37.1875,89.93835,-2.25,0.00397212
56123.6619,11.75,37.25,91.16384,-1.875,0.004092032
56123.6644,11.8125,36.9375,91.99122,-1.5,0.003536076
56123.6669,11.8125,37.0625,92.41671,-0.8125,0.00508559
56123.6694,11.8125,36.8125,92.56667,-1.0,0.001961645
56123.6719,11.8125,36.6875,92.60641,-1.3125,-0.01080199
56123.6744,11.8125,36.75,92.66002,-1.5625,-0.01107607
56123.6769,11.8125,36.6875,92.77296,-1.3125,-0.01127697
56123.6794,11.8125,36.3125,92.92036,-1.375,-0.008576607
56123.6819,11.75,36.375,93.04175,-1.8125,0.003928516
56123.6844,11.8125,36.375,93.07674,-1.75,0.004897157
56123.6869,11.6875,36.4375,92.9847,-1.5625,0.003838192
56123.6894,11.6875,36.4375,92.74647,-1.875,0.004277351
56123.6919,11.8125,36.375,92.35706,-2.0625,0.004155882
56123.6944,11.8125,36.1875,91.82018,-1.625,0.004157439
56123.6969,11.875,36.3125,91.14864,-1.625,0.004180799
56123.6994,11.875,36.4375,90.36707,-1.75,0.004213502
56123.7019,11.875,36.4375,89.51002,-1.4375,0.004216616
56123.7044,11.75,36.6875,88.61175,-1.5,0.004213502
56123.7069,11.875,37.25,87.6916,-1.375,0.004218174
56123.7094,11.8125,37.875,86.74476,-1.5625,0.004222846
56123.7119,11.8125,38.75,85.7455,-1.625,0.004239976
56123.7144,11.9375,39.875,84.66367,-1.4375,0.004246205
56123.7169,11.875,40.5625,83.4854,-1.0625,0.004230632
56123.7194,11.75,41.25,82.2244,-1.5,0.004239976
56123.7219,11.8125,41.6875,80.91521,-1.6875,0.004260221
56123.7244,11.75,42.125,79.59234,-1.5625,0.004272679
56123.7269,11.75,42.5,78.26866,-1.5625,0.004258664
56123.7294,11.9375,43.125,76.92744,-1.3125,0.004246205
56123.7319,11.75,43.3125,75.53835,-1.25,0.004252434
56123.7344,11.8125,43.9375,74.08879,-1.3125,0.004257106
56123.7369,11.875,44.25,72.60974,-1.5625,0.004243091
56123.7394,11.6875,44.75,71.17634,-1.0625,0.004201043
56123.7419,11.875,45.25,69.8765,-1.1875,0.004155882
56123.7444,11.9375,45.75,68.76232,-1.5625,0.004135637
56123.7469,11.6875,46.25,67.81307,-1.5625,0.00413408
56123.7494,11.75,46.75,66.93728,-1.6875,0.004104491
56123.7519,11.75,47.375,66.01972,-1.6875,0.004064001
56123.7544,11.6875,47.625,64.99078,-1.5,0.004037527
56123.7569,11.625,48.375,63.87665,-1.25,0.004031298
56123.7594,11.625,49.125,62.79417,-1.4375,0.004037527
56123.7619,11.5625,49.5,61.88328,-1.5,0.004014167
56123.7644,11.625,50.25,61.20889,-1.375,0.003990808
56123.7669,11.5625,50.6875,60.69136,-1.625,0.00397835
56123.7694,11.6875,51.4375,60.1156,-1.75,0.003979907
56123.7719,11.6875,52.1875,59.22726,-1.8125,0.003983021
56123.7744,11.6875,52.9375,57.87285,-1.625,0.003970563
56123.7769,11.5625,53.6875,56.10585,-1.5625,0.004054657
56123.7794,11.5,54.375,54.18819,-1.6875,0.003540748
56123.7819,11.6875,55.1875,52.46998,-1.4375,0.004937647
56123.7844,11.5625,55.8125,51.19921,-0.9375,0.002142292
56123.7869,11.5,56.5625,50.36282,-1.3125,-0.009282064
56123.7894,11.5,57.3125,49.65618,-1.3125,-0.009412877
56123.7919,11.5,58.0,48.61431,-1.5,-0.009517216
56123.7944,11.5625,58.625,46.84912,-1.5625,-0.007165693
56123.7969,11.5625,59.5,44.26951,-1.6875,0.003665332
56123.7994,11.5625,59.9375,41.15758,-2.0,0.004523405
56123.8019,11.5,60.5,38.04285,-1.875,0.003638858
56123.8044,11.5,61.1875,35.42596,-1.8125,0.004067116
56123.8069,11.4375,61.625,33.49323,-1.8125,0.004011053
56123.8094,11.4375,62.0625,31.98275,-0.5625,0.004032855
56123.8119,11.5,62.625,30.29284,-0.9375,0.004037527
56123.8144,11.5625,62.875,27.7978,-1.25,0.004045313
56123.8169,11.5,63.25,24.2186,-1.375,0.004062444
56123.8194,11.5,63.5,19.85418,-1.3125,0.004085803
56123.8219,11.3125,63.6875,15.538,-1.4375,0.004074902
56123.8244,11.4375,63.9375,12.31976,-1.25,0.004051543
56123.8269,11.4375,63.9375,11.0139,-1.125,0.004049985
56123.8294,11.5,64.0625,11.82989,-1.125,0.004068673
56123.8319,11.375,64.1875,14.26373,-0.9375,0.004079574
56123.8344,11.25,64.4375,17.30367,-0.8125,0.004064001
56123.8369,11.4375,64.375,19.85002,-0.4375,0.004032855
56123.8394,11.5,64.25,21.14895,-0.5625,0.004018839
56123.8419,11.4375,64.5,21.04201,-0.8125,0.004028183
56123.8444,11.3125,64.25,19.93324,-1.1875,0.00402974
56123.8469,11.4375,64.375,18.51833,-1.25,0.004007938
56123.8494,11.4375,64.25,17.4297,-1.25,0.003998594
56123.8519,11.4375,64.0,16.97398,-1.25,0.003987693
56123.8544,11.1875,63.875,17.07161,-1.4375,0.00399548
56123.8569,11.1875,63.6875,17.39252,-1.0,0.004000152
56123.8594,11.3125,63.3125,17.58456,-1.0,0.003973678
56123.8619,11.4375,62.9375,17.46096,-0.875,0.003962777
56123.8644,11.4375,62.75,17.05739,-1.0,0.003976792
56123.8669,11.375,62.375,16.55546,-1.1875,0.003986136
56123.8694,11.375,62.0,16.14398,-1.25,0.003986136
56123.8719,11.25,61.5,15.91104,-1.1875,0.003956547
56123.8744,11.3125,61.0625,15.82437,-0.6875,0.003951875
56123.8769,11.1875,60.5,15.79307,-1.1875,0.003967448
56123.8794,11.25,60.0625,15.75183,-1.4375,0.003984579
56123.8819,11.1875,59.25,15.70365,-0.875,0.00397835
56123.8844,11.1875,58.875,15.69433,-1.4375,0.003948761
56123.8869,11.3125,58.25,15.74385,-1.875,0.003948761
56123.8894,11.4375,57.625,15.79337,-1.875,0.003969006
56123.8919,11.5,57.125,15.71613,-1.625,0.004054657
56123.8944,11.375,56.75,15.39436,-1.25,0.003568779
56123.8969,11.5625,55.9375,14.81541,-0.9375,0.004803719
56123.8994,11.375,55.4375,14.12153,-1.1875,0.002308923
56123.9019,11.4375,54.8125,13.57047,-1.1875,-0.007829103
56123.9044,11.3125,54.375,13.41799,-1.125,-0.007885165
56123.9069,11.5,53.875,13.78417,-1.625,-0.008120318
56123.9094,11.375,53.4375,14.57942,-1.4375,-0.006136317
56123.9119,11.3125,53.25,15.53635,-1.1875,0.003596811
56123.9144,11.25,52.875,16.33449,-1.125,0.00438792
56123.9169,11.3125,52.5625,16.75272,-1.375,0.003631072
56123.9194,11.375,52.25,16.76863,-1.5,0.004009496
56123.9219,11.3125,52.0,16.55433,-1.25,0.00395499
56123.9244,11.5,51.625,16.37661,-1.6875,0.004011053
56123.9269,11.3125,51.375,16.46037,-1.5,0.004043756
56123.9294,11.5,51.125,16.88947,-1.5625,0.004059329
56123.9319,11.3125,50.625,17.59295,-1.4375,0.004040642
56123.9344,11.375,50.25,18.41219,-1.5625,0.004043756
56123.9369,11.25,49.9375,19.19971,-1.3125,0.004076459
56123.9394,11.3125,49.5625,19.88915,-1.5625,0.004076459
56123.9419,11.375,49.375,20.50028,-1.375,0.004059329
56123.9444,11.375,49.0625,21.08619,-1.4375,0.004045313
56123.9469,11.3125,48.75,21.66632,-1.4375,0.004049985
56123.9494,11.25,48.4375,22.1938,-1.375,0.004071788
56123.9519,11.3125,48.3125,22.57874,-1.125,0.004071788
56123.9544,11.25,48.0625,22.75035,-1.125,0.004056215
56123.9569,11.4375,47.875,22.71475,-1.3125,0.004034412
56123.9594,11.375,47.875,22.56794,-1.5,0.00402974
56123.9619,11.4375,47.5625,22.45141,-1.4375,0.004040642
56123.9644,11.3125,47.4375,22.47603,-1.4375,0.004023511
56123.9669,11.375,47.125,22.6595,-1.6875,0.004006381
56123.9694,11.25,47.0625,22.91573,-1.4375,0.004000152
56123.9719,11.4375,46.75,23.10296,-1.5625,0.004020397
56123.9744,11.3125,46.5,23.10239,-1.8125,0.004059329
56123.9769,11.4375,46.375,22.88175,-1.9375,0.004056215
56123.9794,11.1875,46.1875,22.50814,-1.5625,0.004037527
56123.9819,11.25,46.125,22.10558,-1.4375,0.004034412
56123.9844,11.3125,45.875,21.785,-1.4375,0.004046871
56123.9869,11.25,45.5625,21.58892,-1.375,0.004067116
56123.9894,11.3125,45.5,21.48132,-1.5625,0.004064001
56123.9919,11.4375,45.25,21.38456,-1.0,0.004042199
56123.9944,11.3125,45.25,21.23657,-1.0625,0.004034412
56123.9969,11.375,45.0,21.03192,-1.5,0.00403597
56123.9994,11.25,44.9375,20.82283,-1.25,0.004025069
56124.0019,11.375,44.8125,20.6827,-1.375,0.003997037
56124.0044,11.3125,44.6875,20.65775,-1.4375,0.003953433
56124.0069,11.3125,44.5,20.73828,-1.8125,0.004006381
56124.0094,11.3125,44.25,20.86628,-1.625,0.003645087
56124.0119,11.375,44.125,20.97206,-1.75,0.004615285
56124.0144,11.375,43.9375,21.01482,-1.375,0.00262817
56124.0169,11.5,43.9375,21.00056,-1.1875,-0.005250213
56124.0194,11.3125,44.0,20.96776,-1.25,-0.005127186
56124.0219,11.5,43.75,20.95359,-1.0625,-0.005141202
56124.0244,11.5,43.4375,20.96287,-1.25,-0.003702256
56124.0269,11.3125,43.4375,20.96237,-1.0,0.003335184
56124.0294,11.5,43.4375,20.90487,-1.4375,0.0039145
56124.0319,11.375,43.25,20.76573,-1.625,0.003439524
56124.0344,11.25,43.1875,20.56787,-1.5625,0.003786802
56124.0369,11.3125,43.125,20.37634,-1.3125,0.003754098
56124.0394,11.375,42.875,20.26298,-1.75,0.003797703
56124.0419,11.25,42.8125,20.26222,-1.5625,0.003847536
56124.0444,11.5,42.625,20.34569,-1.6875,0.003881797
56124.0469,11.5625,42.375,20.43196,-1.25,0.003917615
56124.0494,11.4375,42.375,20.42815,-1.75,0.003936302
56124.0519,11.375,42.25,20.28033,-1.9375,0.003933188
56124.0544,11.375,42.125,20.00452,-2.0,0.003948761
56124.0569,11.4375,42.0625,19.68093,-2.125,0.003965891
56124.0594,11.3125,42.0,19.41382,-1.4375,0.003964334
56124.0619,11.3125,41.75,19.27847,-1.75,0.003930073
56124.0644,11.3125,41.625,19.2818,-1.9375,0.003863109
56124.0669,11.375,41.625,19.35563,-2.25,0.003864667
56124.0694,11.375,41.5,19.38477,-2.1875,0.003983021
56124.0719,11.375,41.4375,19.25581,-2.125,0.004138751
56124.0744,11.4375,41.1875,18.90507,-1.9375,0.004377018
56124.0769,11.4375,41.125,18.34697,-1.875,0.004573238
56124.0794,11.3125,41.0,17.67321,-2.25,0.004489144
56124.0819,11.25,40.875,17.02401,-1.75,0.004129408
56124.0844,11.375,40.875,16.54105,-2.0625,0.003789916
56124.0869,11.5,40.875,16.31574,-1.9375,0.003766557
56124.0894,11.375,40.875,16.34886,-1.9375,0.003766557
56124.0919,11.6875,40.625,16.5371,-2.1875,0.003789916
56124.0944,11.4375,40.5,16.69772,-2.375,0.003858437
56124.0969,11.625,40.5,16.63144,-2.5625,0.003911386
56124.0994,11.375,40.375,16.20786,-2.3125,0.003926959
56124.1019,11.375,40.1875,15.44125,-1.875,0.003939417
56124.1044,11.3125,40.0,14.51782,-1.75,0.003958105
56124.1069,11.4375,40.0,13.7487,-1.375,0.003965891
56124.1094,11.5,39.875,13.4518,-2.1875,0.003953433
56124.1119,11.5,39.625,13.80299,-2.375,0.003930073
56124.1144,11.5625,39.625,14.72461,-2.25,0.003925401
56124.1169,11.5625,39.625,15.87538,-2.125,0.003947203
56124.1194,11.5,39.5,16.76455,-2.4375,0.003951875
56124.1219,11.5,39.4375,16.95772,-2.1875,0.003992365
56124.1244,11.5,39.1875,16.28983,-1.9375,0.003662218
56124.1269,11.3125,39.125,14.98193,-1.8125,0.004515618
56124.1294,11.375,39.0625,13.59469,-1.5,0.002805702
56124.1319,11.375,38.875,12.82283,-1.4375,-0.003868887
56124.1344,11.375,39.0625,13.21379,-1.4375,-0.003516938
56124.1369,11.4375,38.75,14.93784,-1.4375,-0.003705371
56124.1394,11.4375,38.6875,17.72136,-1.9375,-0.002582557
56124.1419,11.5,38.6875,20.98132,-1.3125,0.003582795
56124.1444,11.5,38.625,24.10329,-1.6875,0.00389737
56124.1469,11.5,38.5,26.73238,-1.875,0.003431737
56124.1494,11.5,38.3125,28.93678,-1.625,0.003769671
56124.1519,11.4375,38.1875,31.16264,-1.1875,0.003802375
56124.1544,11.375,38.375,33.99805,-1.375,0.00388024
56124.1569,11.5625,38.125,37.85911,-1.0625,0.003925401
56124.1594,11.25,37.9375,42.75115,-1.4375,0.003934745
56124.1619,11.3125,37.9375,48.22115,-1.4375,0.003956547
56124.1644,11.375,37.8125,53.5268,-1.6875,0.004004824
56124.1669,11.3125,37.6875,57.94394,-1.625,0.004021954
56124.1694,11.3125,37.5625,61.06913,-1.6875,0.004018839
56124.1719,11.3125,37.5625,62.97936,-2.125,0.004006381
56124.1744,11.375,37.375,64.1806,-2.1875,0.00401261
56124.1769,11.3125,37.3125,65.3756,-1.8125,0.00403597
56124.1794,11.25,37.1875,67.16156,-1.875,0.004051543
56124.1819,11.1875,37.25,69.792,-1.5625,0.004042199
56124.1844,11.25,37.0625,73.09836,-1.625,0.004032855
56124.1869,11.125,37.0625,76.59216,-1.8125,0.004037527
56124.1894,11.125,36.9375,79.68632,-1.5,0.004056215
56124.1919,11.1875,36.875,81.93081,-1.5625,0.004057772
56124.1944,11.125,36.75,83.16553,-1.875,0.004037527
56124.1969,11.0625,36.75,83.53992,-1.6875,0.004031298
56124.1994,11.125,36.5,83.41291,-1.6875,0.004042199
56124.2019,11.1875,36.5,83.19482,-2.25,0.004065558
56124.2044,11.3125,36.4375,83.20329,-2.125,0.004046871
56124.2069,11.1875,36.375,83.58414,-1.5625,0.004021954
56124.2094,11.1875,36.375,84.31075,-1.5625,0.004018839
56124.2119,11.25,36.25,85.24033,-1.6875,0.00402974
56124.2144,11.25,36.3125,86.19033,-1.5,0.004034412
56124.2169,11.25,36.1875,87.00294,-1.5625,0.004032855
56124.2194,11.375,36.125,87.58157,-1.375,0.00401261
56124.2219,11.125,36.125,87.89987,-1.625,0.004015725
56124.2244,11.1875,35.9375,87.99212,-1.125,0.004026626
56124.2269,11.25,35.6875,87.93381,-1.4375,0.004026626
56124.2294,11.0625,35.75,87.81697,-1.5625,0.004007938
56124.2319,11.0625,35.5625,87.72334,-1.4375,0.004007938
56124.2344,11.0625,35.375,87.69989,-1.1875,0.004021954
56124.2369,11.0625,35.375,87.74416,-1.9375,0.00411072
56124.2394,11.0625,35.375,87.80691,-1.5,0.003705822
56124.2419,11.0,35.3125,87.81338,-1.5625,0.00479749
56124.2444,11.125,35.4375,87.69572,-1.8125,0.002516044
56124.2469,11.125,35.1875,87.42144,-1.5625,-0.005365453
56124.2494,10.9375,35.375,87.00323,-1.6875,-0.003682011
56124.2519,11.0,35.25,86.4845,-2.0,-0.003610376
56124.2544,11.0,35.25,85.90874,-1.875,-0.002496906
56124.2569,10.9375,35.375,85.29036,-2.1875,0.003984579
56124.2594,10.9375,35.625,84.60514,-2.5,0.004015725
56124.2619,11.0625,36.125,83.80779,-2.1875,0.003554764
56124.2644,11.0625,36.875,82.86687,-2.375,0.003936302
56124.2669,10.9375,37.6875,81.79607,-2.1875,0.003934745
56124.2694,11.0625,38.5625,80.65999,-1.8125,0.004021954
56124.2719,11.0,39.25,79.54697,-2.1875,0.004096704
56124.2744,11.125,40.0625,78.52276,-2.5,0.004165226
56124.2769,11.1875,40.625,77.59123,-2.0625,0.004202601
56124.2794,11.1875,41.0,76.68559,-2.1875,0.004221288
56124.2819,11.0,41.5,75.70218,-2.1875,0.004252434
56124.2844,10.9375,41.75,74.56152,-2.4375,0.004296039
56124.2869,10.875,42.25,73.26176,-2.4375,0.004285138
56124.2894,11.0,42.625,71.89132,-2.5,0.004250877
56124.2919,11.125,43.0,70.58958,-2.6875,0.004216616
56124.2944,10.9375,43.3125,69.4733,-2.6875,0.004202601
56124.2969,11.0,43.9375,68.57031,-2.5625,0.004194814
56124.2994,10.9375,44.25,67.80145,-2.8125,0.004158996
56124.3019,11.0625,44.8125,67.02574,-2.5,0.004123178
56124.3044,11.0625,45.3125,66.1266,-2.375,0.004098262
56124.3069,11.1875,45.875,65.08968,-2.3125,0.004090475
56124.3094,11.125,46.3125,64.02118,-2.25,0.004079574
56124.3119,11.0625,46.875,63.08844,-2.5,0.004056215
56124.3144,11.0625,47.4375,62.41145,-2.4375,0.00403597
56124.3169,11.0,47.875,61.96677,-1.875,0.004028183
56124.3194,10.9375,48.4375,61.56654,-1.625,0.004037527
56124.3219,10.8125,49.125,60.93669,-2.0,0.004042199
56124.3244,11.125,49.75,59.86224,-1.875,0.004020397
56124.3269,10.875,50.375,58.32095,-2.375,0.003986136
56124.3294,10.9375,51.0625,56.52391,-1.8125,0.003987693
56124.3319,11.0625,51.6875,54.82611,-2.5,0.00401261
56124.3344,11.125,52.375,53.54184,-2.1875,0.004007938
56124.3369,10.9375,53.0,52.75923,-2.0,0.003989251
56124.3394,10.8125,53.4375,52.26064,-1.9375,0.003958105
56124.3419,11.125,54.6875,51.60664,-2.1875,0.003956547
56124.3444,11.1875,55.1875,50.35319,-1.9375,0.00397835
56124.3469,11.1875,55.625,48.29317,-2.0,0.00397212
56124.3494,10.9375,56.3125,45.58974,-1.6875,0.003962777
56124.3519,10.875,56.8125,42.71675,-1.8125,0.003948761
56124.3544,10.8125,57.5,40.22275,-2.1875,0.004011053
56124.3569,11.0625,58.0625,38.43422,-1.9375,0.003757213
56124.3594,11.125,58.625,37.25771,-1.9375,0.004473571
56124.3619,10.9375,59.125,36.19757,-2.0,0.002970776
56124.3644,10.9375,59.5625,34.59772,-2.0,-0.003108925
56124.3669,11.0625,59.875,31.99454,-1.75,-0.003298916
56124.3694,10.875,60.0,28.40175,-2.0625,-0.003616605
56124.3719,10.8125,60.5625,24.37327,-2.3125,-0.002722714
56124.3744,11.0,60.875,20.79919,-2.3125,0.003171668
56124.3769,10.875,61.0625,18.52554,-2.3125,0.00387401
56124.3794,10.75,61.25,17.98093,-2.1875,0.003509602
56124.3819,10.8125,61.1875,18.99185,-2.125,0.00379926
56124.3844,11.0,61.5,20.87361,-2.1875,0.003819505
56124.3869,10.8125,61.625,22.74603,-1.5,0.003866224
56124.3894,11.0625,61.75,23.9138,-1.75,0.003894255
56124.3919,10.9375,61.625,24.12716,-1.875,0.003923844
56124.3944,10.875,61.75,23.60903,-1.75,0.003939417
56124.3969,11.0,61.9375,22.85949,-2.125,0.003940974
56124.3994,11.125,61.8125,22.35872,-1.9375,0.003950318
56124.4019,10.9375,61.75,22.32918,-1.9375,0.003975235
56124.4044,10.9375,61.625,22.66992,-1.3125,0.003993923
56124.4069,11.125,61.4375,23.07295,-1.6875,0.003998594
56124.4094,10.875,61.375,23.23356,-1.5625,0.003969006
56124.4119,11.0,61.0,23.02542,-1.6875,0.003965891
56124.4144,11.0,60.75,22.54715,-1.625,0.00399548
56124.4169,11.0625,60.5,22.03021,-1.9375,0.004021954
56124.4194,11.0625,60.125,21.67957,-2.25,0.00401261
56124.4219,10.9375,59.9375,21.55094,-2.25,0.003979907
56124.4244,11.125,59.5,21.53579,-2.0625,0.00397835
56124.4269,11.0,59.125,21.45329,-2.3125,0.003997037
56124.4294,11.0625,58.8125,21.18202,-1.875,0.00401261
56124.4319,11.0,58.1875,20.74262,-2.625,0.00401261
56124.4344,11.1875,57.625,20.27884,-2.3125,0.003990808
56124.4369,10.9375,57.125,19.95106,-2.125,0.003989251
56124.4394,10.9375,56.6875,19.81452,-2.1875,0.003997037
56124.4419,11.0,56.1875,19.7653,-2.3125,0.004003266
56124.4444,10.875,55.625,19.59538,-1.6875,0.003989251
56124.4469,11.0625,54.9375,19.12808,-2.0,0.003973678
56124.4494,10.75,54.5,18.35263,-1.8125,0.003976792
56124.4519,10.9375,53.9375,17.47217,-1.8125,0.003993923
56124.4544,10.875,53.4375,16.82614,-1.875,0.003979907
56124.4569,11.0625,52.9375,16.72188,-1.6875,0.003962777
56124.4594,11.0,52.625,17.26458,-2.0,0.003950318
56124.4619,11.1875,52.3125,18.28078,-1.9375,0.003951875
56124.4644,11.125,52.0,19.38203,-1.6875,0.00397212
56124.4669,11.25,51.875,20.14104,-1.75,0.003969006
56124.4694,11.1875,51.375,20.29212,-2.125,0.004007938
56124.4719,11.125,51.375,19.8547,-1.6875,0.003719838
56124.4744,11.1875,50.875,19.11981,-1.9375,0.004481358
56124.4769,11.1875,50.5625,18.50955,-1.625,0.002964547
56124.4794,11.0625,50.5,18.38253,-1.4375,-0.003277113
56124.4819,11.1875,50.0,18.88025,-1.5625,-0.003471776
56124.4844,11.1875,49.6875,19.88313,-1.5625,-0.003705371
56124.4869,10.875,49.125,21.08643,-1.4375,-0.002615261
56124.4894,11.0,48.8125,22.14829,-1.5625,0.003293137
56124.4919,11.0625,48.5625,22.83391,-1.875,0.003891141
56124.4944,11.0625,48.375,23.09146,-2.1875,0.003478456
56124.4969,11.1875,48.125,23.03631,-2.0,0.003797703
56124.4994,11.125,47.9375,22.86651,-1.5625,0.003835078
56124.5019,11.0625,47.625,22.76024,-1.375,0.003883354
56124.5044,11.0,47.25,22.80437,-1.75,0.003898927
56124.5069,11.1875,47.1875,22.97865,-2.0,0.003908271
56124.5094,11.1875,47.0,23.19021,-2.125,0.003928516
56124.5119,11.3125,46.8125,23.33128,-2.3125,0.003965891
56124.5144,11.3125,46.4375,23.32927,-2.0,0.003969006
56124.5169,11.125,46.3125,23.17034,-1.5625,0.003964334
56124.5194,11.3125,46.125,22.8939,-1.5625,0.00397212
56124.5219,11.25,45.9375,22.56808,-1.8125,0.003984579
56124.5244,11.3125,45.75,22.2602,-1.8125,0.004021954
56124.5269,11.4375,45.625,22.01333,-2.0625,0.004046871
56124.5294,11.25,45.375,21.83422,-1.875,0.004043756
56124.5319,11.25,45.1875,21.6944,-2.0,0.004057772
56124.5344,11.1875,45.0625,21.54311,-2.0625,0.004065558
56124.5369,11.1875,45.0,21.32875,-1.9375,0.004073345
56124.5394,11.1875,44.875,21.02291,-2.1875,0.004068673
56124.5419,11.3125,44.5,20.63745,-2.0,0.004056215
56124.5444,11.3125,44.4375,20.2264,-2.0,0.004071788
56124.5469,11.0625,44.4375,19.86894,-2.375,0.004101376
56124.5494,11.1875,44.125,19.63918,-2.625,0.004081131
56124.5519,11.25,44.0,19.57598,-2.6875,0.004043756
56124.5544,11.0625,43.875,19.6678,-2.25,0.004015725
56124.5569,11.1875,43.875,19.86069,-2.125,0.004004824
56124.5594,11.25,43.6875,20.08556,-2.4375,0.004001709
56124.5619,11.0625,43.625,20.28952,-2.0625,0.003976792
56124.5644,11.25,43.5,20.45408,-1.9375,0.003953433
56124.5669,11.25,43.3125,20.59049,-1.6875,0.003945646
56124.5694,11.3125,43.125,20.71655,-1.9375,0.003958105
56124.5719,11.3125,43.125,20.83262,-1.625,0.003964334
56124.5744,11.3125,43.0625,20.91166,-2.0,0.00393786
56124.5769,11.25,42.75,20.91286,-1.6875,0.003920729
56124.5794,11.3125,42.75,20.81147,-1.8125,0.003916057
56124.5819,11.1875,42.625,20.62441,-1.75,0.003920729
56124.5844,11.375,42.3125,20.41388,-1.6875,0.00399548
56124.5869,11.25,42.4375,20.26175,-1.6875,0.003690249
56124.5894,11.25,42.25,20.226,-1.75,0.004456441
56124.5919,11.3125,42.125,20.30377,-1.6875,0.00285865
56124.5944,11.3125,41.9375,20.42518,-1.625,-0.003683569
56124.5969,11.125,41.9375,20.48407,-1.8125,-0.003840856
56124.5994,11.375,41.8125,20.39186,-1.4375,-0.004085352
56124.6019,11.3125,41.75,20.12547,-1.75,-0.002960981
56124.6044,11.25,41.5,19.74235,-1.9375,0.003209043
56124.6069,11.4375,41.4375,19.35333,-2.25,0.003803932
56124.6094,11.375,41.4375,19.06731,-2.3125,0.003397476
56124.6119,11.3125,41.125,18.93685,-2.5,0.003702707
56124.6144,11.375,41.1875,18.93299,-2.375,0.003693364
56124.6169,11.375,41.3125,18.9613,-2.5625,0.003699593
56124.6194,11.4375,41.0,18.90833,-2.5,0.003721395
56124.6219,11.375,40.75,18.69314,-2.4375,0.003819505
56124.6244,11.4375,40.8125,18.29872,-2.1875,0.003976792
56124.6269,11.4375,40.75,17.77119,-2.5625,0.004241533
56124.6294,11.3125,40.5625,17.19359,-2.125,0.004528077
56124.6319,11.375,40.5625,16.65186,-2.6875,0.004559223
56124.6344,11.5,40.375,16.21034,-2.875,0.004188585
56124.6369,11.4375,40.4375,15.90252,-2.5625,0.003744754
56124.6394,11.5,40.0625,15.73147,-2.4375,0.003712051
56124.6419,11.4375,40.0,15.6707,-2.1875,0.003752541
56124.6444,11.4375,39.9375,15.66223,-2.375,0.003783687
56124.6469,11.3125,40.0,15.61885,-2.4375,0.003827291
56124.6494,11.3125,39.75,15.44224,-2.25,0.003875568
56124.6519,11.5,39.5625,15.06185,-1.75,0.003912943
56124.6544,11.5,39.625,14.48224,-1.8125,0.003951875
56124.6569,11.4375,39.5625,13.8121,-2.0,0.003975235
56124.6594,11.4375,39.5,13.24687,-2.3125,0.003965891
56124.6619,11.5,39.375,12.99562,-2.3125,0.003950318
56124.6644,11.625,39.25,13.17634,-2.125,0.003962777
56124.6669,11.5,39.3125,13.73215,-1.875,0.003986136
56124.6694,11.4375,39.125,14.41935,-1.8125,0.003975235
56124.6719,11.625,39.125,14.89322,-1.6875,0.003948761
56124.6744,11.5625,39.0,14.86647,-1.9375,0.003939417
56124.6769,11.6875,39.0,14.27049,-1.8125,0.003948761
56124.6794,11.75,38.9375,13.33443,-2.0625,0.003964334
56124.6819,11.5625,38.875,12.52946,-2.0,0.003967448
56124.6844,11.5625,38.6875,12.38944,-2.3125,0.003950318
56124.6869,11.5625,38.625,13.28548,-2.625,0.003928516
56124.6894,11.625,38.375,15.26346,-2.375,0.003936302
56124.6919,11.6875,38.4375,18.02984,-2.6875,0.003951875
56124.6944,11.75,38.4375,21.09921,-2.6875,0.003945646
56124.6969,11.6875,38.4375,24.03627,-2.4375,0.003926959
56124.6994,11.625,38.3125,26.67024,-2.1875,0.003984579
56124.7019,11.5,38.125,29.1697,-2.0625,0.003687134
56124.7044,11.625,38.1875,31.93571,-2.4375,0.004521847
56124.7069,11.75,37.875,35.36426,-2.9375,0.002857093
56124.7094,11.6875,37.8125,39.59986,-2.5625,-0.003823726
56124.7119,11.5625,37.75,44.40908,-2.625,-0.003909377
56124.7144,11.625,37.6875,49.24541,-2.0625,-0.004147644
56124.7169,11.625,37.5,53.47882,-1.6875,-0.002970325
56124.7194,11.5625,37.4375,56.67844,-2.25,0.003199699
56124.7219,11.6875,37.3125,58.80858,-1.9375,0.003747869
56124.7244,11.625,37.3125,60.24104,-2.0,0.003356987
56124.7269,11.625,37.375,61.57866,-2.0625,0.003702707
56124.7294,11.6875,37.125,63.37842,-1.75,0.003722952
56124.7319,11.5625,37.0625,65.90907,-1.8125,0.003760327
56124.7344,11.5625,37.0,69.05614,-2.0,0.003807046
56124.7369,11.5625,36.9375,72.40783,-1.875,0.003849094
56124.7394,11.5,36.8125,75.46531,-2.0625,0.003895813
56124.7419,11.5625,36.9375,77.86826,-2.0,0.003898927
56124.7444,11.6875,36.75,79.52442,-1.875,0.003900484
56124.7469,11.625,36.875,80.59434,-2.125,0.003920729
56124.7494,11.5625,36.6875,81.35989,-2.25,0.003944089
56124.7519,11.75,36.6875,82.06013,-2.1875,0.003961219
56124.7544,11.6875,36.4375,82.7859,-2.25,0.003959662
56124.7569,11.6875,36.5625,83.48141,-2.3125,0.003939417
56124.7594,11.625,36.625,84.03488,-2.1875,0.00393786
56124.7619,11.625,36.3125,84.39178,-1.8125,0.003961219
56124.7644,11.6875,36.4375,84.61667,-1.875,0.00397835
56124.7669,11.625,36.25,84.86675,-1.8125,0.00397212
56124.7694,11.5625,36.25,85.29644,-1.9375,0.003959662
56124.7719,11.5625,36.0,85.95426,-1.9375,0.003962777
56124.7744,11.6875,36.0,86.73789,-2.1875,0.003975235
56124.7769,11.6875,35.8125,87.43779,-1.875,0.00397835
56124.7794,11.75,35.9375,87.84735,-2.0625,0.003969006
56124.7819,11.625,35.75,87.8774,-2.1875,0.003967448
56124.7844,11.4375,35.5625,87.60879,-1.75,0.00397835
56124.7869,11.5,35.625,87.25167,-1.5625,0.003990808
56124.7894,11.5625,35.5625,87.03204,-1.1875,0.003986136
56124.7919,11.625,35.5625,87.0674,-1.6875,0.00397835
56124.7944,11.5625,35.5625,87.29998,-1.6875,0.00397835
56124.7969,11.6875,35.5625,87.52438,-2.0,0.003983021
56124.7994,11.5625,35.4375,87.49483,-1.75,0.004001709
56124.8019,11.6875,35.3125,87.0541,-1.5,0.004004824
56124.8044,11.5,35.625,86.2147,-1.5625,0.003987693
56124.8069,11.6875,35.5625,85.15036,-2.0,0.003997037
56124.8094,11.5,35.6875,84.10437,-1.625,0.004026626
56124.8119,11.6875,35.8125,83.26571,-1.375,0.004037527
56124.8144,11.625,36.375,82.67977,-1.6875,0.004115392
56124.8169,11.6875,36.6875,82.23883,-1.8125,0.0037759
56124.8194,11.8125,37.625,81.75254,-1.6875,0.004696265
56124.8219,11.5625,38.5625,81.05577,-1.5625,0.002920942
56124.8244,11.8125,39.25,80.09323,-1.9375,-0.004237968
56124.8269,11.625,39.875,78.93659,-1.625,-0.004077566
56124.8294,11.5625,40.3125,77.72978,-1.5625,-0.004222395
56124.8319,11.5,41.0,76.59896,-1.9375,-0.002917377
56124.8344,11.5,41.25,75.5833,-1.8125,0.003674676
56124.8369,11.5,41.625,74.62617,-1.875,0.004060886
56124.8394,11.6875,42.1875,73.62601,-1.9375,0.003593696
56124.8419,11.75,42.5,72.5146,-1.9375,0.003919172
56124.8444,11.5625,43.0625,71.31122,-1.625,0.003920729
56124.8469,11.6875,43.4375,70.11811,-1.625,0.003976792
56124.8494,11.625,43.8125,69.05937,-2.0625,0.003975235
56124.8519,11.625,44.375,68.20232,-2.0,0.003964334
56124.8544,11.75,44.8125,67.51229,-2.0625,0.003962777
56124.8569,11.75,45.25,66.87202,-2.0625,0.003959662
56124.8594,11.5625,46.0,66.15708,-2.1875,0.003970563
56124.8619,11.8125,46.125,65.3208,-2.3125,0.003969006
56124.8644,11.8125,46.8125,64.43338,-2.0,0.003948761
56124.8669,11.75,47.4375,63.64486,-2.6875,0.003942532
56124.8694,11.75,47.8125,63.08787,-2.5625,0.003950318
56124.8719,11.6875,48.375,62.77689,-2.0625,0.003951875
56124.8744,11.75,49.0,62.56934,-1.6875,0.00393786
56124.8769,11.625,49.5,62.22195,-1.875,0.003919172
56124.8794,11.5,50.125,61.51921,-1.8125,0.003926959
56124.8819,11.5625,50.6875,60.40179,-2.0625,0.003942532
56124.8844,11.5625,51.3125,59.01652,-1.9375,0.003947203
56124.8869,11.625,52.0625,57.64742,-2.1875,0.003942532
56124.8894,11.5625,52.75,56.5554,-2.125,0.003923844
56124.8919,11.625,53.375,55.81324,-1.6875,0.003925401
56124.8944,11.6875,54.0,55.23428,-2.0,0.003933188
56124.8969,11.6875,54.625,54.44722,-2.375,0.003933188
56124.8994,11.6875,55.1875,53.08897,-2.1875,0.003922287
56124.9019,11.6875,56.125,51.01505,-2.5,0.003909828
56124.9044,11.5625,56.625,48.40632,-2.0625,0.003923844
56124.9069,11.625,57.3125,45.70087,-2.3125,0.00393786
56124.9094,11.5625,57.5625,43.37262,-2.625,0.003919172
56124.9119,11.5,58.25,41.66932,-2.5,0.003902042
56124.9144,11.625,58.875,40.455,-2.0,0.003898927
56124.9169,11.4375,59.25,39.25545,-1.9375,0.003912943
56124.9194,11.5,59.6875,37.49971,-2.375,0.003919172
56124.9219,11.5,60.125,34.84104,-2.3125,0.003909828
56124.9244,11.5625,60.3125,31.38932,-2.5625,0.003883354
56124.9269,11.5,60.625,27.72323,-2.8125,0.003883354
56124.9294,11.5625,60.75,24.66179,-2.875,0.003979907
56124.9319,11.75,61.0,22.9004,-2.625,0.003601483
56124.9344,11.625,61.3125,22.69135,-2.4375,0.004632416
56124.9369,11.625,61.5625,23.72979,-1.875,0.002466211
56124.9394,11.6875,61.6875,25.30198,-1.8125,-0.00543086
56124.9419,11.5,61.625,26.61851,-1.75,-0.004443531
56124.9444,11.625,61.6875,27.16216,-2.1875,-0.004437302
56124.9469,11.5625,61.875,26.87714,-1.4375,-0.003140071
56124.9494,11.6875,61.8125,26.1161,-1.8125,0.003624842
56124.9519,11.5625,61.875,25.38901,-1.875,0.00374164
56124.9544,11.5625,61.9375,25.06124,-2.0,0.00327445
56124.9569,11.625,61.875,25.16518,-1.8125,0.003657546
56124.9594,11.625,61.75,25.41857,-2.1875,0.003629514
56124.9619,11.5625,61.625,25.42367,-2.25,0.003712051
56124.9644,11.8125,61.375,24.9217,-1.9375,0.003766557
56124.9669,11.6875,61.375,23.95294,-2.0,0.003822619
56124.9694,11.6875,61.0,22.83282,-1.5625,0.003842864
56124.9719,11.625,60.875,21.9638,-1.4375,0.00383975
56124.9744,11.625,60.75,21.59695,-2.1875,0.003864667
56124.9769,11.6875,60.125,21.68477,-1.8125,0.003884911
56124.9794,11.8125,59.9375,21.90983,-2.0,0.003895813
56124.9819,11.5,59.1875,21.87138,-2.375,0.003900484
